-.52946990163005309344103835186021354534273679273947373533311470431911010058550300  .95089363090690083247171969571846659154232497627061763668114617738350944734988064
-.64390366497365420676286610088308772018744061952351625604640173563175777489433995  -.42826672393890121746533268973398066118945560087643831029759974442805263989011168
6.6676718068166130373832206013603985262454245283151245954578380757434130707756188  .96950379200058638160408999085371180164783474979306914706409585510150451761226425e-1
4.2598846953529923972697394702795762258237786515209758054084193444937866950187454  -.14689922853184197415392687117205386423066623848354794549628900355984123898766211e-1
-10.962943099748796350381380109047375819265991827209344974832611462045049702454039  .16734645150851683664718531893535535751606382432522629466174484079239039697149659e-2
-10.725342929056431095570395504354915178219215413337030584322543476602916933699953  -.15260999067016962903426789702682498202202047506043994427510233390706113706164200e-3
1.0757892016876913814373222629657021435556640383747188751206859662232688671535357  .11579961855556431064736867610610373877063125287378686854635516894934689985249702e-4
5.8877795459356455269516918255111494159911075255091918168460625359157348072543887  -.75005296219483704911348553277699770090262167084799520466129646882171042638516078e-6
3.8327681957933214050503746442044267412153593662524870146311956611001733860560013  .42200876603261134559354437393579422314381407111137464418174159500279136940082522e-7
1.3649638724978161391720217510800404226764941521806070325597822049035458019818654  -.20871841473650032577769762095584031104134556603320774068077150312806803104926888e-8
.31944133132579230319754939964582985991642413011898239745479552257682691827096768  .91440558504591661333942810467047950995899557716614996548218277435800679519967454e-10
.52778495901563585887871906308384353609550432346105393825684581877292971892123636e-1  -.35632008309802945906491649419021080228167234234568740366798276588991665303198648e-11
.63841133620670291526251948618594284808072808335031347209863676536521246893380494e-2  .12359427109458621775454136454686934517293937019944844633204961784004690225740909e-12
.57624266162118115033918889861848989205441671834906603849202861817484753627819094e-3  -.38055397760789200144710952622676877975006296801951401314629693524687489687095658e-14
.39112569284731934512321463313291062163909566319782590183413890961463437933130240e-4  .10329773394784727204437088838852473077037844037816013357293620078348066289860007e-15
.19921980611939281703570543057621871401441966212243897089323243895233644195672177e-5  -.24414314060539097172694446780239740400202895602115433732299624033064402437339234e-17
.75174013347835237196435622761289267004839154263575605048397132096273333034447253e-7  .49231473008247392956891746780380087496650060423278418987187788785417468379079724e-19
.20439171924298288459954872401268889979071634773580096813319787628853174984302331e-8  -.81930468941104068850451785483072534571660113465004806913328164723559256908256469e-21
.37971272296706133755959597121668882013096598849149775119856540241392915501665888e-10  .10628144345535803044266086837360131702500398108766925782013520732685161925121302e-22
.43284831264962878651395065239426019416511447705848313445985903940764524550741500e-12  -.96240065008996928601557599621635257074601816321421234176404589534114770432286619e-25
.22920544622822601341098258842667330534511290350476309178201415469973307652375888e-14  .45969966460139007745936013885193479904985811168050507483823378324373009154099270e-27
-.11220319050746701169248401042221001970947146151651046875484427569707461625319100  .94736360108525673442630131500198477574861466043821587413583959668403357025131564
-1.3724768275482827452806130877295652261975327737573178383427716230220413501820600  -.44192169989034751661360192618533215805421469453557515779999399576176916135302211
.961547445038746368475565877960351308812230204955572678687886380558005931787  .10380766441600117542470210305550961199498562558165849166904665746867718005984647
1.7377494372351302197942530215115097316558968616931184090390874866574669272195  -.16353753085783006222899459056411820665658365985736415404634268053928000183677522e-1
-.6538170332138823419625342550323766444303767787222253692373083029967990575715  .19412250617553325540502032247561904802456709417761392258460903580915369053468212e-2
-.68631597235522020574252165762867900626728962322086512060019134900422931455279505  -.18489739899922856296382401008319472814914632219885203924368251259261248246186170e-3
.895287586045440542136373022981932758398008280612897981315404974597375845433145e-1  .14691452054510333167774418674963839777594432145343594938556421587897300533119417e-4
.1234672773797073763745654846236710343415071222009963153948922278296538878184044  -.99928084025752904367146132211281797822736525060419119142005434855558616502919041e-6
.857535617154088200746480625505769894196314813092910117888712182623625919005e-2  .59225046410511523170837868123518559840095637909735993172340602705338901457754186e-7
-.90759650921289537490080561532401983092909407225775480025735990936848703514726e-2  -.30961586627974071883564550343821287398458077804950756163939555782604664202658253e-8
-.2249705791331247564553793885794391514804586288654050532700471737710937805335005e-2  .14392344059921233056499211718300954943725489469082104976706584662777129370544647e-9
-.32190849400474206504739601809792873660578821776906898736841047556418195547e-6  -.59758911974601636702267675967823849410560943244406148917457391957159387253773550e-11
.85831140705668594767586985416507284624169042927163623554852822359677059982053667e-4  .22191668210502488829212197417931210919864624331666474056837430384077558942755107e-12
.18654397486252527448236695590498367370408720022079509181607745220082420932079914e-4  -.73545595831176105950412209475569164650666856788950349666114542049159985155758279e-14
.2187954265867864869925376949598137361528388090674753412112018779333863832972712e-5  .21617724789360595297684612362175380454026332660744988176461001818635093243663763e-15
.16617009564877229107105042750276319620178879407528918098446032708817642926372287e-6  -.55711801173274205803755260018315755746229445165880713170588572717454744821065609e-17
.8580589828798439722123285369487551776073223284515864697211135878833969878953548e-8  .12347863722325654577338512491280928025296016753613705927846585708243334619514876e-18
.30164700541897468302571366381581777748859395205403994320479502784275738582549513e-9  -.22796708669954782111840153435692335119430587817116944099306402741659689870314216e-20
.69582524135244964167362480355968411291022765140069052612272868870199799565967254e-11  .33167390128104858947361949987437697484754645809507161114934262069094060426484612e-22
.95543681874107765734707157924371729625482438067642092122969044199621552042258850e-13  -.34128142530922449148628511983338753286189255809919635783806420155639249517425491e-24
.59518278932292333900494099647340548690852932192059080594526910567773783297888783e-15  .18820735394619449454891354601551308615587007884379981084644345831806599184274864e-26
-.47940354621596393529682591161253820942173528936358102364980805984936974132416078  .94356924828621622598501858364529013796472546667388583428769000471925005049157008
.11108602492914945808147990921003364202476569004140922442796011560121003049664310  -.45594992333070556235664534864963551002855524399654471707616053318684982050295566
1.1922553646985640096834900206102145367555737152905061690985267067925362947  .11115957757159871973506318181520602003566162548312838550786693716773562019398799
-.34745779299392495792723180042726430475347542632391514995804352555592612674  -.18213123105415217136568079848347554449820452550651757762860822485022635434377780e-1
-.43603649005130560986116420438852095199681945667895356095309455877488130362  .22536100259301002261720940999358483926763293326797735506553354691071327784448163e-2
.1025745183088953950217400396967513659911740809754481136380622261080387997677742  -.22431056953158288697505251716798642910488665717538291311545096706819914833909218e-3
.6250144866969147132116052242245866555636659946701466211377695358904324835143e-1  .18676142274303468384111967207023684498317474103474713536908661036500442418153960e-4
-.918106770159227460792569584908292641026731869100923193786881615516456270267e-2  -.13351329440237537011014750405787883766004086493448413502534197222273416059040371e-5
-.478016826821777568279284024439479745075881053860531675782303948770990600386e-2  .83447077396072046902053839651096588896141746540501104264386659798861161612329465e-7
.218546013854235373189995645538760771024859436603936459044810578281726041869e-3  -.46176344230849610970358993254339714842820032315929919442194454222545076208919247e-8
.20252615941031392786192954531479908652706220737891237467456853136307109401095e-3  .22815929310417761078157861901273865312208666894245918523647353951487395407095995e-9
.928903747915552065891860718215000227887502613885686324136775768817625188716e-5  -.10117548310851986441532618644058969110027458886896466623946521571289460721437515e-10
-.390442406478580450243060785494787311920189118638916876065327512422556345516394e-5  .40343095054742231397897112838783775980685479741611966501607448738848701778582402e-12
-.537194714205017660146621944153824576544466086142616350287373671839583933148965e-6  -.14445490533340456501580917419756650176774906212464103240833398271863370166548499e-13
.1205284551407516265493023123888155030178231412420648603843735988883799063118e-8  .46206832619106120944142550868091235584966321484212907444271959263945088434954378e-15
.60430637831956438013107667403656293201853201319039344643248076835777861633028951e-8  -.13068929061420966097705439047931143776704768738263118258841630426433406562389482e-16
.656574984185920913153518630414567056077020047799808920678817836991035437326560e-9  .32112558530702421537888084457970274642965334755571354858473177829609497444027072e-18
.36140223538881854307503569162660747033467477738608137151765065762372308091334143e-10  -.66542867125807388629987978702652068707630952867751558988768668422507565283749561e-20
.11511271726655334717905489971565410627390725682574905545053872402611152565433083e-11  .11035339797521940296656621931486899445395964162184138187491871960313334644344444e-21
.20331434290573704186324482502555095889842567549526795124477553910941644465742726e-13  -.13204204952613935895902852180576609846426672094882430292841323567548127177440753e-23
.15560717403799937610296911192420255182401719694286773816745931362613644991753591e-15  .87026024480936332544219641666824060061119137609558882279828808871116012334361398e-26
.2280200877058301834330999827894721429593508349360353484103371177913973186121547  .93952583472872708054516284986628383499519495147513014233792957575738519321133824
.6582356326852413449612585596298957339830602471209059743027423342972335974509865  -.47023290040096559604531107127066245185440147236324979229289833489623115028762452
-.728091687926031967227552094300023434014304248586933929009940902552133166  .11897237071907634109686911717292175354505120119392769534338658716661948457596544
-.2108655819284263750852458346731950898761532981015842783370360670339112269  -.20272454055127698115772624456941694018268924157428589155860220518270436257999373e-1
.2455311329525958603665420657539597288715350900131713019150416764397495888  .26147503729419905120464861514018093017719195319405920218775404997636296500692116e-2
.10291763676615547386782720395263539076329110810615932044494348580640708276001e-1  -.27198071573670197483230427031661020910533040185920097412394835019495576237142781e-3
-.268198100256459095455068067718263032818828139253336054741954462934283240629e-1  .23732082356462690078418183855614334207211379439575622986221582971597010959234955e-4
.1983357143440045713176515316576942621495201811418213038383075191863271739e-3  -.17835777822863713047321363688142089036035749812817824707860432021382149363136292e-5
.138261822901375340803631194148031709042690689040359706502114530352077857509e-2  .11760208648952206326163854998539541508038102185965238915842101404333606335830213e-6
-.5611856627227507924565560655960193399191013213559472680191879817704820692e-5  -.68923301789253412511961232657861356826351120757710019272179315107246892024735103e-8
-.396046271435866572219600136594607913460613483541963567780118476035475035287e-4  .36229353744941546592417267725249833350824741586993586663501848519335676601868982e-9
-.84190538906124833337502902830140766230879572003462752826076201999959254112e-6  -.17178435384403134095217479986044779966398426871358240684150195586052944308373358e-10
.64265577582291538972997684704388224624801865487761531868369074823679201333732e-6  .73674353466811125318316068828229819616921775067562085309946850914744913529922608e-12
.36729380320643299517421918960275372120627265939151830257240418491394426412188e-7  -.28569609685203501120848047211294254708649768642690096038111268044584650468444799e-13
-.4925100368728601028483693968282300450897224040083049994228479351320596406298e-8  .99781368035892077866764022393954627711435931859482541792375980949430838007955830e-15
-.544189292074584080317575080087954525112783005637244525659043808351891100737683e-9  -.31120499283179091638731342736424364907517914016171660273392782984241041715280988e-16
.3304393289883925592195652509239974132189287720736461543989263489154596805965e-12  .85362648550269616884286505453441172131172675285462151399390653132303326485105011e-18
.2555065045851583777068847409492770335568855933268002220064593266273407588014853e-11  -.20058498538187481401518650284022994608284002075000183349361036155078536031846685e-19
.1569676803530109611277732263802887701141943347255540916071689564734523272004688e-12  .38525618831060623083529449635373827409965645229045726815883058572055131074444208e-21
.40757458752820245372203560557380422918112310709076204089885277710038759737529921e-14  -.55030846679595310523111596783923492257347144352016419147828064931679278505176928e-23
.41057897000230733195813397851499334765255651754481557802688919403173685348225459e-16  .45653355693943370772920124812502152228771394787439551525698048172485801785556947e-25
-.4960349763668853652757595106124597719311688713673664608357750600201373428167e-1  .93526099655660957397529106447910616429471296393576700646875097396780882016252580
-.72857751117107839701996267203160519294687834406403879161888144179318957550741  -.48460849707052143480145386699373617451337972340542509205568067016388342895947802
.425044241306469541551477738330992590734436845599907811928488203045797456  .12718816441524810403091145480760159402543459980010763519582118911301007536972434
.229128359759888113275849175972618271626035143688964440249609439042395259  -.22529827353259547799005182806300471268887696653680777868246826545257913930610852e-1
-.1420982500346547283216628849628567103884493324235409181479326599553541782  .30279378079238115629396136272750719033466772134823828921269324666341504435715368e-2
-.1166716224353503321730293249956099261257493419542627230963731629489762330491e-1  -.32902863676017521414318705235585813769851991519488777589236033399478264665031109e-3
.131505168271201508005782084299770127061009027472507589279749646744431852641e-1  .30077577419306472094214422651877250498220904597768399937689024990030716919867066e-4
-.2023005506838459275512374389126384529085313990094408281773027613393141394e-3  -.23756462299856262771906403963206653806461201586429584291037954811827322125232256e-5
-.53086152997288137342997831322568015227084004869563265039429905054511906096e-3  .16520582684396854513855708067390361555035433911396224411620947542477346780552985e-6
.22155809660072382176857595605690197401651203063832710478409391012249756488e-4  -.1025258099391422167650173400313446369243551254416538009231934528551029106672732e-7
.116653415271620862240544233940355297749086436705675211582772906946848811662e-4  .5732779095442211122198049935023710379186297860162924444702247416710015050320238e-9
-.471545986013363086218472803274771239311463785802217629925681013275414795075e-6  -.29067282894245836606661241262099888538288562527569924113960497403863383785249673e-10
-.15714121756556954540971116979010200308909066340287374248374765351795653932891e-6  .13412710805802587374062086068277067623832113844024122758148954949369275034052318e-11
.3677323873671018486474115258880156765477872219515728627005832728348418362628e-8  -.5636739222474406839977410307206031377630119094813704335640710237410713847428226e-13
.13319678983037325485995892572964992040154835337545562919438747665660251603455e-8  .2152351610498353804970791389971112461356589042677338977017904963443706056031204e-14
.1803774368160534513861742814546430913294562933759953364111219224519817127885e-11  -.7418557586677738838222400407682261093791646617603693940756960565267523308805194e-16
-.645532632139553270864078517866625528663295947977875502709511145574067607384425e-11  .22805467416323141230357939875183877000196277136907804993266997546840035070190904e-17
-.1788797181045376952329665162435149026781545042082495116435084383246349630537292e-12  -.6114284070201761550895680809692387698795227044425503784273058996183793344835865e-19
.1212041728498175667938273988790618442700848844580504221276499739999485839338900e-13  .13780856227467305891820353855486820939523939750113765569079275290408287546896125e-20
.7262177983479121370526737373832037247593960643293972052914336539669115133988427e-15  -.23942618854561556142152603884217805374497819517576233860846652824397765926222309e-22
.10934173726070890802341207110066986663972701275236041083141854924408168145906854e-16  .27264767532167058385021105338445426138805407814249582136189781097773070051730063e-24
.3846471691911692355714784127311237126374319456091449450830398916072707621400e-1  .95414431429375047279658040047183983799694503287274305542370605052243688471866393
.6697546546867006508560172225534791906434247923121975366237935469015586243382  -.40368725100733659950548679372701557068702848223999007727261436621844255709759570
-.30952561557565393166007795640603815821031376747417169288845202766417073  .904464538710109585966016204403903458622523719322448439054450163327442853975756e-1
-.186852905814536919919342357284293420470318912676941688708769154795542569  -.1400306227437961540340585827909398633820668476501456638517678196964026630748765e-1
.86781700949884268297180082572080465484944115142427058941918008447077537e-1  .167508734147102692599173570806935769693347670236237525886204116396688291146303e-2
.105435613999846930098630209868782706360522311622904918471204746275070257499e-1  -.16423386348091996922248827037675352436387662803175996675914266068498490062226067e-3
-.6727909532436730242692820150678963530561845091055829901659892852068588205e-2  .1370657153942666748964442619190131794055217536974009850825083741557412464449182e-4
-.1184950478672704736174120097986847505486823838632779550870041930117870826e-3  -.99817611835267096649441963560360886956746060422536841999109156401306689162833e-6
.22619396274232331338568147801796888891337224370193033554848548290611155384e-3  .64603315521981933360809957938822089963465686472045997338818167911695343292595e-7
-.2842301102917248538751684437413521879945332888028037322690997821118202558e-5  -.37626972307590228633801322694553868001177145164443450380207530358876257659096e-8
-.40697616680658894405207361014949657825294111307439439964400329618775742615e-5  .199194036335432589577195339597497132163224987331602008335892434358065491593818e-9
.66000803916065298126486582817992601213368054663737433152965597505925720871e-7  -.963994297312515412518902691599277304090535164899502478319989542005954751001934e-11
.4365948249147415909006037979186397074795683240172750967961575502673077077175e-7  .428698968321144611957844058791857123988086628937598274299198185042646501725304e-12
-.278554867600783091955705558941512104335034660764442206448649018269291446894e-9  -.175140991352315550040687842117540315980905436291824427729803158561300786289965e-13
-.2860183988637557214932383236198293412821647240229762535454679762400578821215e-9  .658585538037357398926930178440363568149575357695125175673453950101574437522209e-15
-.29748006212534413903331705640829775532992938221456769467437026754856715907567e-11  -.2256712795739349675304409051533079455998315210765450784105171328763476566947335e-16
.104646885185307644353159877138529175507078248472687882795454547164283058075414e-11  .7052620537390012531461612193664975646737354167631496373149761784461412992479169e-18
.316149410989628705476173338564716010502667352303869162652748620108530358212334e-13  -.1936535047644083935282057038965989242822712491736616044351094355268846957513440e-19
-.1437562306251879459107477261991023520242646115733971497686590166370705695555487e-14  .4731647939775823421282249957291761022522738338334707819178156781653453701290262e-21
-.8480495967986884430213941756946143552068888015531584974872673336293809413075057e-16  -.8735846243944889098804690364793713839723646481141130905720030298890035831867281e-23
-.11583561377138855356333334259752103737717009238191854690443387553902007367868360e-17  .13878491565286315331912374571134808814922633663313909499768410111060418420105849e-24
-.15016502768847433754240827485228419932137529120574435194070442791502324174795  .96389670998981057119245138405395380961527004369631939688321615571336898402268184
-.5413358761756287799637722899765038179784133152876992668836290333899535096185  -.35249495012089893393255021962805031363904621668855038372837801272012728048127460
.33603288676805831604504021859146989110048465756487105997532777162069372  .71351059495034053346162324163280205241206017757244142784512766745174263615121e-1
.106856560024053993624394433991062806701336043911751096428152897813712280  -.101542200748673923102413766162514983247963889406672166815966106870387657202769e-1
-.66849570594067807773145400745581240813644826197765904565114563468874056e-1  .11337348227349798511684699774861667366481718913730757787978795468132041712301e-2
-.311602715749533658826337345681670461371301513125344136383414032124435848712e-2  -.10477778268459072297220915160344590295584254617707977454122335053271232325279429e-3
.40045830931767711297411936237242644986564075898658088004242462206644399866e-2  .83192946223738319188347208487848270522797699876901040819496517710888652718171e-5
-.790314992535213826474189493816047873156337142878132566911084836871790651e-4  -.58018947866357655987997610575723327081431968982280722342503417038677384029202e-6
-.10643323531402719585445713938281379596467250038668744820924774408800681535e-3  .36200687444142129448470622331161756326084360700015758711297152188995161518446e-7
.4138301871696132273662291236751546568261068040254753791114200098047483258e-5  -.20419934671162806042352171775967991973549441314342989770926721988221160966916e-8
.152698178484317302816283910852830597834040207815063383013384807913844095330e-5  .10525572267910104032203782843198180258952873590645534842024769324294147763802e-9
-.59087601488285684872864642325598084755579557253760207135521137488814747639e-7  -.49746266225606450706085814332729667105846071751243586990606853463404182824531e-11
-.13185335121565440307759380937639589472393854527405643283440567600395319823463e-7  .217107782749690594222071690428756290050344929005181521363696225742756932447320e-12
.3564556291041937933935156103736586276653287368027265771385881560582579433794e-9  -.87146204263561374976567489267890985812025760332300269456680964773171079920864e-14
.7079132585372463841265132068395381233710067625148044458985330510758909864948e-10  .32380131243431995050389964115128840340410992533300199521854711179348389040853e-15
-.63603628094139224540932365547984368711798304312423937913806573494102259575070e-12  -.1094071323160625710799239189250540331824150821622046954235963567111680930946088e-16
-.219913485511024945339522499135229157808910961503413570679310589575081169058802e-12  .3404498166447883917549897389520929579370501128380420169045956281425074044872170e-18
-.230671011281481290255947382336352432951533082245655803295405233735918509636544e-14  -.921522100238562879658441230926053756254768908100741383160196293187136088537745e-20
.2919185373689560124599682768919386223794127929024019627843738488798589677245908e-15  .2274985289966405691520739813973466895845024390577221905982270595827955315176711e-21
.8543370135420772140135740368837679776237165151439362684918925801047775805676410e-17  -.4097923883411163626689153804682447304823483070527100198517447453716644513133839e-23
.50276777621437385801089050517542734453598148479108558850344429150177296942908615e-19  .69226267341224267053309195937191312783706053488737571646732502983979481939431754e-25
.324731382528926292687789937352315222965031710214207158530047162393849318296  .96756400859217219051001449632961194685648293671112986585637179190476563270358301
.294184556117293987203600939275188488822283339154282408903251701050625334606  -.33317724102193900141282792351590703496322591307718138517829621358694110157573401
-.37985640351509102885165365359389611138075594959986673009248905238904668  .6417134071868036650013322322381275079144644579863865736653108232922732275730e-1
-.8386310575477176086237392534051663495323666036823497622394564381842898e-2  -.8708468330661523491520662894738387033535782307694738875578692151194338647457e-2
.52368236094913671950151225503726827274055283003741055320822584921500910e-1  .9289809395460804788713490264943792128760977964614440851984983120922692970277e-3
-.43263262538615221071451556202336746123385282174389848488099456123458710947e-2  -.820561418630545869223424692683587330825876599270019226029731482031143725962884e-4
-.2275450862794431609917505761724743029529132890322855119395203222379167315e-2  .62285344332826779994005191936218245302667675433347816006965900909404829109864e-5
.2630710904337114487040467895684675915692967058682834158576231126918265664e-3  -.4150572962129246240333846754330944989438008404882522240725996536479515354431e-6
.4375661843326344127662371247338997531132651894571983785767853819980528799e-4  .2473334924683594754290166596559977846876402922483927027893142782246333555264e-7
-.5819401017517230622747606010671387852576359964879689857162504179402583558e-5  -.13310847079528553781716508956208292400541931478711355113169580658277001262057e-8
-.45069378400138968186322419611934890942310456400215218837414558709275006958e-6  .6540063876384221875620654877191027051015712065562275915053678385896329965767e-10
.63950547601029167716230711242310553847868903337975915521984065176015442348e-7  -.29421689890983799971248622660122737027075995980396916693473178064504360469909e-11
.288568925248730476103921213053681351957163985533307556253359179033647079568e-8  .122072204538788366579196751635056049444509038734001204807574369457605514514415e-12
-.3892117932221497524172112496580980673309527146563786469190692017624161751559e-9  -.46500078498139098166891846240688885020280402727166919925317192742867698911471e-14
-.1290675200391519690461442518530831328309182971615946088821273022863435619827e-10  .163711558343254263514693316564024072559770167342794615207903985795618402558770e-15
.133614272499075504265868523516080987918246290218533100629489286642210929712993e-11  -.523028088245775963506346502524224245989484353877627389977716601397440245094401e-17
.40623176489930649945658039929399169950921659938808167989035961429898120113156e-13  .1535704156130221311529111158736155545027141658988515635061242498606656472022279e-18
-.238779221067588143855677454093646873322970102528772916138277162784276244594372e-14  -.3913706973311815480751924567444217602689379111156653525136578008445061909846826e-20
-.761312693375474686433259442980509555473419867504071999969406471370098043263494e-16  .906073561617901624332560050018499288138684471174936445467526425725131423762700e-22
.1636494154912954648083178334343095511591843859127777573757186053547177439956193e-17  -.15300644923708478361977258448752182277182331594983158524163826332586884227329847e-23
.56436196421991921873014384642593618144961209919140694462418604015134216504894144e-19  .23899951322642848343137420121236098229401960395066550888647967093116638778657860e-25
-.445652984348222928426670454529685029874282238576041851253828256507748382593  .97378050931655360417991974467867685417513224970633934527540372685440105923805539
.6557671864886983116096046973567939603193628305397585753270300874477133834e-1  -.29869367118375783962272629137287556899508504485023238940621100153471820133411576
.3243231356112082374934610700450643971999723824163021529026411939854343  .5196908958546994515346780586652205008497996474710376812093141397500668635630e-1
-.7285499576630104489211479467279193942696293951338671789344926991594955e-1  -.6404945135638817163426874934725863233136598821355140194127008859061711653334e-2
-.29906573279057906454443354831155860575888012271961332638486739218646837e-1  .6235851434956401894132485447468070223379473725828610643023549475406742619544e-3
.7514992645224366014339634518687188897238665984150983227785063800473952470e-2  -.504276865307448507673253698281801880504686386177110863019912528960979996707716e-4
.834043875615912025404755572671556927822529536407868778892806176758639717e-3  .35143064257197515649221690653925140791593104092617950103860791469149551927470e-5
-.261539886735274236876360453792971908588246188857386375171530558497054068e-3  -.2154244801352377106162399781931688148141304293577199473396083605964034178443e-6
-.85869641776735872609357841584636121236894160855727669085325741973144128e-5  .11829303438432896428271250775216627693084590556286608023913526423239512971118e-7
.4277138789810225151246946847870978637016059985199867529556021723471020802e-5  -.5873046124798696193173297080272134935475187949779768305720174292285579969913e-9
.235278350307142296136482381959699895501230890819245062292951196448372383e-7  .2664744556649907136366167480323745130827371646973494238726500432599413815065e-10
-.38503257017137566224224050783621009668791595382681532174893496816987943869e-7  -.11076010848089951991602762488420081933814023532104888551274319827999323708736e-11
.11178857546290947961189564016802290909619114481920539959368110778955187747e-9  .42475157035413380428517054136550966832737536970587519238600041547472102463470e-13
.2068461115300519192746242053741488717370032080042197736564565338612172708306e-9  -.149548717917622561528561574307561566408854332950420950779291973947080915062522e-14
-.39381705246032219460370516079637737780213338334736613406871138959049005577e-12  .48647494688494529161612159496916634161439071399721101945997163918944139904419e-16
-.67588779200372086133304798163475478350067000718729903273526940190983013580663e-12  -.1435589666742109714970889269069207867494426069058004949470705333889783490261506e-17
-.2863646294813007599833948547696421984109642361093836952667186814327207404688e-14  .3886725389773096857734001203277519013882921436381893709396481371376420399735572e-19
.126041859860000294949932535829290996209210082187106364350621620406610422338416e-14  -.913508888683108591086019328557008607657326160947661963136801365233090476063917e-21
.159703087800865152976100182217320230137938541768223840952028673971443391725332e-16  .1939026356392254869072152325582209866334884874551232615343762571453250768395683e-22
-.10374851764112775587909218003325372904085455913940937839030801120233377097733702e-17  -.3015929924669163871497091649045383172661234933645249673122319563561738690618626e-24
-.22142365862516093025000990456702496258980535120344397806134579184957734256711601e-19  .42335070623313972528687409449529820629949554014647391767602024022353083366442897e-26
.35498220412303653712293481267785205372356731395651411685278643323233050720  .98052658639945304437056194476836201944901959252188590840455264556548368460999646
-.40345092287889198542767648686395828616126545217036597784488095709920764969  -.25168942723110985222765495268112606075470223623130964403911683658753540865702786
-.1448502827525967582473354552281827942470294170256536116580336666718892  .3866630615123782713303224290089822593748606333883625077995444522609970773461e-1
.1090073298516917211186436035700357606044804450432325830888681797903378  -.4238850080311022802864238185819385049666080482583690810822686852428115590253e-2
.463841633706037363466812973340702903913442614069854106781298237067614e-2  .372574258017307203661715086872079466876312640946316754669159633933730987991e-3
-.6902727812350709991233181694507513923683068565407464020529239330748823993e-2  -.273147595739687519346469118375322821995508753816378286302550549497948411943863e-4
.16388635342315408643531434740820249312343666808110948480062106028369115e-3  .17402317846839498850745753158022390183406518408389704932977575591253262254387e-5
.175098782877266436503029118076102819610764792700282698668847228460055772e-3  -.977464674555897213177762231621482483062448118453396728443538261592118543904e-7
-.76235019423062663603307616344100257799591896176178343448004114203118543e-5  .4949519326505455427706875486822210597627401906779422471845076997653450984938e-8
-.2266896209810686448035490240768547983801890280607647249116126866877513930e-5  -.2267909160594711226561561764312304796545037733998133328855043407268771027708e-9
.1061056166283598651730447629487379207581279217065629322808840903219035460e-6  .9555963132124192059702847939314387817327448547396720517134253559153417059203e-11
.17204633823026743280683225451193973543199981280017741986666062973400724332e-7  -.3685336455713952264113816361027444666320849169727315407517010717631060040710e-12
-.69804495600548221879727434302786429318202226503853860648091392884706890243e-9  .13217549252726074111104003769338550424471289833786657721988011411342785747337e-13
-.825567856513354971465172002208780448664310527612021120876326397601021776924e-10  -.43354243867953863255822780883911380731885711392934591208230959677647998304201e-15
.229711152097734944916696153193338978034264123107670372645330658379011362797e-11  .13313028711778554078501542488691510294587339754694594324158833543095722024886e-16
.25299629629591558539190950116471098632125081070914444194467922758419234584872e-12  -.366844480602631582385022955515278979206510313265299723825594877089972005101225e-18
-.30213436215107861596523902427166973808942041050733982550283326310014424142273e-14  .953308096787156689582308963854553162857943214869084251689746467039234880868089e-20
-.456846070089356789286189435410943552848427208890602318987936524298024507258420e-15  -.2086815703983166086284811314705893336679300885703728757088015099331452656017149e-21
-.161126534096390509921353500221302682302334243348770349220206754247152817550969e-17  .442285517591467235351997823541712237957114143477359742123194561193358007120473e-23
.3694918028161041430826360167286631004940075261258942338176964416607328586499529e-18  -.6276553655624476791243430913192656022876455444703863897107293018377521831460179e-25
.60844687086514695036670441586874945375682747487731529161907731449552918391906203e-20  .99795555266964714922723084059644761449489663377667461330968968990999233412241183e-27
-.416865204158606291952475032166824285042995928178647081457855761916668289e-2  .98364863008924192411994249679823812173534166268047783071624071998977584603346515
.48744276914236205935911631926615773854678246184035768485466608050240626942  -.22442849493559403169681299089808419597052581464151647916279310439807342415528109
-.100931805492284974799644403592174532480835708677094696610611651807191  .324884246336766182854823136831674480878174332243377450711514564574603407494e-1
-.825018498223098509418978834288501481631473491559302188340446884111992e-1  -.336572606746665069728293575172192267198017174708843408873880773653311368433e-2
.1656491999485922682498525619934686386544864541740191027946909195036824e-1  .284706537876991088084794840940825406427365512269948151003702191128184083598e-3
.3442415238132556734236962567572546398906642882515308111972511460675382766e-2  -.20148080730762015992014655885943166733715461417232225980032890605508115060897e-4
-.718481715907895377043451067794628310817750840441719283171259074886585632e-3  .1253434403163902851578416028305989176211264812886005102747119648169409743858e-5
-.57206229369385890565621807909657354557170607085050306402862648763196534e-4  -.688864422081250336480951345579242436385098054446865626428420918689810328306e-7
.1316390713018709541298362319333343061062429171024336471045492664251968955e-4  .344629477838938048184404244138898679763045158444145250916997225521594131167e-8
.482745152434361235907004525670876119492753315317087040488232182619026079e-6  -.156126803163629015412171182628726227928178858750191569619760200088781900031e-9
-.12411436514672878116211684429204992628347640865732297407039716787583789786e-6  .656909364932079611705227529483013900724289994957595452554944057882717436680e-11
-.26078745867723538006627317840858283594950114650184505300062984108616097029e-8  -.2526257381457451925360144110964429257307468609731223572673538749217456799525e-12
.661381386587601722136760169829080262633752254367373398773796925554715335727e-9  .9145174062507782766936879757493723173016797621862353704084233284349488504892e-14
.1139966128934266324156008291035187289172341859455941647841952302589502342982e-10  -.30115174083641242413685320305377781779526635190429966029124800290415316950905e-15
-.2036234382523587245166074041741472409832073142883049069188152091597015057395e-11  .9449812976551256952044449621406951235788519028066830729333389969746348612326e-17
-.39999846138527343273439857500190635801842153458618535606272372844046161664754e-13  -.262492064521134185945751878010791723470872122021262297299011385547054665512805e-18
.33732799403481039851646202765035994008983400663528885055120842969099954885071e-14  .708874230249578912472432659429091913236931783085048738877007569627266650639587e-20
.870938754781535496947637875091225248369591793392620571491353546346128472173123e-16  -.1561879337813137815311775524810924394894510323001892231006950728581913598542948e-21
-.215145602955050313016118193891853279480556099169312687495793643269656801458258e-17  .353893120443872779454337138462606780206071972915889217234289507158846504876879e-23
-.8116248795514915573407539892989991247224387918485071211552737769483062982349150e-19  -.4980400130650788152936829693163604700516646086331249909860858882348546256256884e-25
-.50234873858481807473282860349634422032701448733636497306592352890607062875559357e-21  .89808065524264318845369805942014228891801057600071251581721916683228026912667096e-27
-.3723068943658194244365481097497836363203453817766217473372928707067698233  .98370714033388852338056867762030114919694322943792374994646315255828620923317964
-.1646047110098046521192152656609189098071710651710934628736171591467663710  -.22774016843643737318655780791570131870963228679777852817994481225666602370798230
.244513365858847600315614204496075261160736181557750786666962577919078  .323812363078431109143052494674975731626608150449776924773836058100907018533e-1
-.27756426859009085711295363712957481307369073870610356228869264820973e-2  -.329940082724712479480550777760068814191856713416927066994638635546274947952e-2
-.2089320659852412211831964453826911515728182970616397000601874849392153e-1  .271703613888177441106309358553014227250500546987421588791479531786943528926e-3
.1497194078500006547049706730927322776745602974232627414433551580084626170e-2  -.18719441814197523064939071545282516730472539286338922048920682212973701284473e-4
.58957621058198109384118745321171393249772014888318799230591520256582756e-3  .1125981724916803476544389600340759670008127276742053668632066553266512596278e-5
-.53651548042657318259105281702821209203078141174964437795807387180143021e-4  -.598380339476697555354174363402879057362077669765640775210857321810486785760e-7
-.75750023018315362927475834548491232163885917626258314974503903358095739e-5  .287617232833565686009481065382045823132015173839682326422955708320799829025e-8
.759482753215432373720285829784038003950885415312038833721826827050853559e-6  -.125280851041910053657327247772439735110993095646233652731134786892003630372e-9
.528241692150434355174975937581235918419576758970173837320934475640229552e-7  .503066423897749521459491950751579476141950713044334753014287647794366636928e-11
-.5476621413212174323481891808571968920425488729713788725793135368143753130e-8  -.1850606288232628197151156449251756275041304190175990291771818396261849220555e-12
-.226595557737265476188393404559745265006568705133461851710113279279171919207e-9  .6342765727631487083827366928894543209783557324554270048953535217924937282047e-14
.222043154152734746354299562707410945448706314986811963775042700337964405209e-10  -.19891543375387207691500891017695366883028053602482787248918258469098937421093e-15
.656374225347203146459928950351073262155577281263829251940727310047160686237e-12  .5845295862742005484491842833918514033516694609631829276392149479075711279433e-17
-.51776249119620049935086834268020647631203710138754908117769389141250917807084e-13  -.154229586336128073039547365743047512131962708616882015829369916256138839564281e-18
-.13158021188748428723932487150711744674914528942059073604581699877719612301416e-14  .383138291320558083094322312279103149298634288619524396473294333684853896374123e-20
.65426140098870321308557279512097712884789634095609171701756278044175031833061e-16  -.804075290925162870556419278866725327882534626735933800134617621619203647006456e-22
.164846241388495862739992844184236677116952276934738286213540586515034424947275e-17  .1617100360324850255609162724574359432247482781650187631401513857877631975608199e-23
-.3490968566968277847283379362196907762915967011120466469300358144557108864253988e-19  -.2208908683923628429507155539733296563018152492386734249074746109491796124002904e-25
-.93969553834291647000543210898217582929506426535292993216779271618787115347230965e-21  .32345723920435525386393337930946724429161826640949477510608201404614781512250853e-27
