-.23603346758283473988528414167100947027007632839904317898205150285846466213148877e-1  .95386514534303317953366852683102116771669130860385182748494786699652318826541505
.34864407194752264962537949202771753574090544345564575360240102411476080274538253  -.41611114863919119452154092067732642567371780525338435175464709560468749114335321
.42714261014927161745276149560603236958276736494030065171319277721128982666994992  .91161534101736016681833751228679885657419783520577184615249292644658433934576814e-1
-1.1159350380199329322652516618965412129810947199880186675868940316969143421035756  -.13355399792812807414732505500269834127247413108074523017272775020340216179531187e-1
-1.5826033059075111317069630063173533181488568958273148053445635669721753898094014  .14696600181873570144012535949766740674883352529431799278873232405973088504838637e-2
.21607767789800772428858162884889984387223396303019057253826482977104258786674914e-1  -.12933376912730465734520946730133451581736577406241509911486766435357600320934626e-3
1.1164156106217088846773538389549821155576796063255620817980361313018138802871336  .94603299764351695264736471241496029198860420541586642254121125296093891480226986e-5
.90691806777708230283988795051090265581396964350611575256502343691179216779517313  -.59003357255441180763984890004214093400253678220692936454784612851294616721013879e-6
.38721013991075492626688610345848913652871451493508540074195001950097987478059851  .31928520622601214598836641321556591826646790679483513412173713168312271982101471e-7
.10706100406108866799667469135611051871905068439545720302616606470723274166455579  -.15168624921605495294942699273237278021558520906936471354096707105430479818861379e-8
.20766713166801456187575042183978173544757808207999303504344835683747617919496302e-1  .63749028484133439565383640904644091363984839557634381300438811406937410455973997e-10
.29455197533562794830469395561724339866381441997736252075609936582110374051301992e-2  -.23796183380113582052560533962061955681039053534844798395979565865238820315354359e-11
.31275816099108410738112358537652118858696614550281696465823927638892685909118295e-3  .78947505013578800528719570411536826632531944929592038027882384683261143830253151e-13
.25170275854379205500352096436174466941435771715559795238088525964830795610836089e-4  -.23212555486037799466617333987395260518893291478592467136993514913228330130183479e-14
.15411098985912755995540332175874977447585217593674672808141364771259228651573115e-5  .60062679267687540356921981430088386249526790731152520748797374221637398907261796e-16
.71457043347613585168547324451429782264334367316960366589081349293825285407353351e-7  -.13506613834286863392282263393644496605806766162720515268340749807331585361450094e-17
.24727686603064958968964800989405843832319645970592415502578158042831862496028183e-8  .25861029670715007951607928007535446686731848537924067085109491294839762130382465e-19
.62036862710857910603831769456098162253340363976958864870403588907800347932146107e-10  -.40774148139190718353220808634663916421998954681403099146315707281763167308576856e-21
.10689985314465802436868289209545983496892698770459399783561733709413381076134218e-11  .49989600125562228456102942310709868658853369576327350121883611681452966036949628e-23
.11353980026907281070917822011392369594805540765744210868296046062009761415351977e-13  -.42668168081817275871449347203432407335634859783259304966977807763363775627682006e-25
.56239157857016948225372904146605506523810637066537969357114860123449021858336932e-16  .19154514776783747137262937651056042351537673122157724974139552479015525503666247e-27
-.38127789778203251952600094053988431804650242905489347439589043131104805886701598e-1  .95067167121051472234512782857663282029798797313092333858092754856300563616438890
.33752599156099217386141392199826129480917239935479410504710844617368551498343989e-1  -.42896983255498243764796225856766628547009550082007164852910473075899440195238254
.1520900410247130633470915757965556936123045273362298687779015921521533654289  .97377722756432803812713836841234146770060350697960335779023021470732596322318491e-1
-.4602024258887568424499315733968143955146525939396857274968516711527621264172e-1  -.14809943226961514300416888775955310565392230361155006596483071831401456880457265e-1
-.10080520995389768167253575835212452253509315290658829241452966392430560764937  .16953058401119332102923097048922135070263318583278484101227901725827322075265326e-2
.43079537184396820042102522979804534089495073620076849557345353535951930295522992e-2  -.15553939408671520695178594681266736314719525911866300300304495718034499696951787e-3
.24367042616243939278119756361424678104130461541411336080435214363533755155106520e-1  .11889966887615415444320830328431872042820215642516267915838511157595063313492724e-4
.374429454997848693631173109437726632528937897794184968522671419842007195607230e-2  -.77703886826183638250714343630274123357795022682825213351367276126456678102247211e-6
-.2033445655272891114612313294136679600601735212249891311533352882546294919616e-2  .44186802903553294878570093598411846640556313283552334382251933036125693375188163e-7
-.74775688700783472938275583220550978506237190579958563363355605275522642287135e-3  -.22130428900899316055589571740904311919043640811829900311306017500102157985392978e-8
-.386551756659781383116917938617039079325696186250783855632327524695666507018992e-4  .98395164677150257555553301253744569535964622228028956049616329989863536635578194e-10
.27267379893236395792542689818675431357221529784821692992234507447779954502243e-4  -.39008387901263508498541576924233444154851485033619486991955357419877317535716112e-11
.79871720010896611952696178618302482770507054596697400572967371206013244606880402e-5  .13804739363800008470782359205083495460666625430625832035627517181292269992069362e-12
.11632694118439454072403382802659130347528950105730591046385472253380674213712984e-5  -.43507975453993087955041775529573775018517820537340465471148135977698249472598232e-14
.1088179786006888020547790892299276175598212276251116523196166013751086129391025e-6  .12133725492632676324176387659123699437500471544700444619318780398289220186030900e-15
.70114878321836556943473133726156019530066538316537553728865708116603465464714759e-8  -.29593086639224493763344021447654945745438693103885440254461244590314748545986858e-17
.31708159872520128930466732908671354980721374730881603637691809152192992541655672e-9  .61893598293197064980162191024431282176179573766935157041390067067331793978886628e-19
.99557386636726658373166694548999916180718384309298803006590417292495461464216010e-11  -.10747856669741006685217769452257960159320045870728012113741531871326545150149860e-20
.20790464915463711056267509211434866651851398121329766599766205765546886632699403e-12  .14653132890484908017680247889656239847808897115473483851038384529854730254346581e-22
.26103317738994316372128522313129317145685445209197760081268848657386892392474707e-14  -.14066951209926903666437364081558080477249660930638185098027986048841619369921545e-24
.14984712123558673718727288686864423142810370273990378469344311263716731994652146e-16  .71997890409144191256284875520462014780134364436744249360978579553642068539283787e-27
-.32277063866607605208642360752584405809021649023472618463650389696904001964653888e-2  .94723527843065285731155423152833693255584729159808473322911200564214065341279949
.65245334952849078252546924572287727005577022518711792031538239578718329265861555e-1  -.44222246953278424922476337198846207895134563593180854219234454584344156460497446
-.11418895552093273991805738823136037909301985878423544958693430824591258886e-1  .10405148819587138712776347930177189671884794139161398661296759164868924467603798
-.51461415888705914775341898828245691810855835487659517995372240414603362110e-1  -.16435099133170755115376648803919648842719066679894331290681196204804126741832808e-1
.72695053125319217988973566611757976899572383363764972970829095441989382271e-2  .19580746413023323644941239171360619238259086991439282270727395649102633503291719e-2
.11526565301756470656932576556812442155180759096535920501488424974585541713366612e-1  -.18741415434278071660090021611537297728029380640201483890615677468938288211877510e-3
-.7312599388923060343164623331606421045896536267262400550894005838700142962912e-3  .14984443452353381204413425884029763507641426773045027617323061068173948248497996e-4
-.11618165681177032699789161120841142466930668332038296126917906130529797887827e-2  -.10271432151247956791087032548591809737013304417741304757892536686648743253567708e-5
-.27445478203516776082645767180254446124832865315205646157257459404840978219e-4  .61456812335150209170081862255260379158935917599977711584603212102679639922186693e-7
.572501364995629358719617200442476328359477515590889484492968827257084182661e-4  -.32498951255905381004078168360267702324932493914509668568826380047358695158593946e-8
.6287666844213461140173281295354677632706507221534820606128952113624573647198e-5  .15316042427974202477699823205957296696564263424142738708963831517606612482292858e-9
-.1061797117451990036131801053878204505247021279194846668373089241595097697692e-5  -.64643770170745273847484280101615414377913423223119676534372963253499304419423177e-11
-.2573157223634202824901652492964310176784542496239539152869648716760679564293881e-6  .24476460178062174508090177283834766445555839145099239101365245463090757438507053e-12
-.1011231040902306339385739486741578154122682593705528178832005488592719922681244e-7  -.83004996315641386484342085188931038141955549153496273345645283287613019540960835e-14
.23895257513968654894447469600849920631378801750830227211967874829249392377328e-8  .25071849976981453439302441631453470983658226218874897239238663621014235455928822e-15
.40078022653677924242353276165027603942366541474243993723383907758508668246054861e-9  -.66735352739033826305533538781479214573984328272371896665433633388223401830872453e-17
.3031142326680206407354546637211192360096946816668079628094272369758571299403858e-10  .15371260858247783772551876599849526405783517530624336227250742651519665105990061e-18
.13581029424819124796817017665809509352175771570255762528615386259720079191486960e-11  -.29717181715150874908574149459480560871386635823410020729581568836324976610739507e-20
.37216909124437642735867183287625624311393017103277725160895544327955454814943719e-13  .45714002207842959175634704322137231796389014838779468952285034158658534465454492e-22
.58189384337990330962424051307675897074395443768220358020659127556844502220816446e-15  -.50362872810117659088789126604094763333104957154132525897089654841164927762605424e-24
.40126197218989122402423995370085146978482585529125223856196792765171091482566850e-17  .30251253836257444439418938390097545322792791555731908343496259604369516254386774e-26
.20684864791626070670284167764377289304864066051115875428337577907007692880522285e-1  .94356767253441039404311637801122204340993213763431849738319378893975443662028711
-.2983087390549508271673445837415313555197774243502169830233276632080178953006367e-1  -.45576368908198499692399303032981412355485639812252579860638505825816824105047068
-.2727937229131152455839820705466733373226126173083841018058416328556264199e-1  .11115664126819079580570171192598336160101268714357386765523487673762376002833889
.2306430566942849728155314329787248078601214165317878516422758371594689605e-1  -.18235780587131117264661457189746584671525547563563606986740085475393001480608446e-1
.5098814377288291510384161694577704999251997977549048201492500280057975621e-2  .22615437432846430582291055851953627720590020440558883096773920381767155068744153e-2
-.41096276218516908592011036215624497910058740563917537221768188016250523501749e-2  -.22586792787539992940403362379016797839820602562640905200212033253776638033299840e-3
-.396896033046483533934996490150112138069374630540059160991347345594740926286e-3  .18894268657275447576858476437861463649657893034146855079383221598285910700448094e-4
.295551034053913665141955547916471650275445500074989605752985611090462560133e-3  -.13590772385107434411870936886878148227500190041848210065149177388676189521086776e-5
.22475053058910481693680833763227984092780073845473743225208748186272843007e-4  .85613090278338070913767800287170140083374510667695853786211373648794427250400514e-7
-.105092419971461620928018513918860332980383920830580332558619604261674334188e-4  -.47841368621022739698733287667742313425020731097641713558700450647499422753573050e-8
-.969658648649542763146366035545220645801060174406898024889220205146882574293e-6  .23925432248147185847450460440846387320245191945430568224250772554242675983597164e-9
.1855045697202750515864054838421596829836540096501775651735989264336222720352e-6  -.10766770700275420693552107023905693105505181566458267639086053817292255325273497e-10
.25029321503152665722995876417604142779586532630033525382595365485863935261666e-7  .43704791680610363237593122496496822548253752172027703679169227849444037677315756e-12
-.104390300089834654287039333368859039928349892938600363625295520624090544793723e-8  -.15990791494353578580831929369770918565433609257421296312292618345902536648464957e-13
-.31426164422547346410661564939296283991029510385121851860549203957567151765236e-9  .52504521467596795309525550964688384390508672896965582963545658567321634315894072e-15
-.1169515442880764869967270357882765692071206156613825945105823264047000323502057e-10  -.15329260848355505367968232527095253789008159046739880196381123105027194503791954e-16
.111953535282488063712856620107601289435810337466723433520085662606852457666401e-11  .39158336395154580303258263166434743178482810453933576828707416745540943444863492e-18
.13175279475566370383912847094168159185196447000037569896774991236394735941065111e-12  -.85137517252546135234852708088732987671627181414504744493834134965457897605489489e-20
.5778295567142385809820184662373293796716855077192297561828326003307957541033288e-14  .15000567360623235326564914835056527960182253831052906325093877370997077041423982e-21
.12380051602845786168244678196247933773288733339837355439120170882714930084482649e-15  -.19417442742112585496901256541822679518093824687248539359526173824204401321003840e-23
.10826565572347161872263581401165981420151048623363775368200449980796212006562774e-17  .14272034053797537947920669108888510288628087224277626263552151444574926091891087e-25
-.202091741735191765669994467940663452232006190848279315742727249818129726022240e-1  .93968052214291948014245252085466358002290354876727968453365922628770463855986458
.122920088776622872955830768318926990461389571348471301929719319845417434549422e-1  -.46950090366587944711244128968105945995301348731146761542799990392203043799267648
.246228404441072293635218560271471788512733894090432283069499566565863963e-1  .11866703458114994787916525366090810475527112624381437736828046668426198920557922
-.1163743539461306427416278691920729560557284161878243429122584298755431081e-1  -.20216173677002165942957762649152782960067352676283330153922255597773763994999660e-1
-.378395216640862390333462914156136608476249457739654297283130883910257619e-2  .26093135103364491787557785973997480726866718360899272576627779583940774191937563e-2
.1900827659922134620761462825861067760446672272900597351881856031229012685021e-2  -.27188596482740135580500797324166134426476953581311041615846277811669930464122904e-3
.18258606685332266628018681380694854102437831227570387216898064727307570076e-3  .23793090049975949953188587902384848929998796559166779411921498812643678445428829e-4
-.11535461484909684957159620870893357501340434647583843131573270519267069528e-3  -.17958232296026162079269768224203282943596506465239403324879963540204228661802910e-5
-.4213599250966395230614371826116267918521900960886223078250036833848808841e-5  .11910371643545538801651898267189308601336402750711026845384240215991487805630225e-6
.34597973637445514447497379990082277715145530090833024195513454509578799747e-5  -.7034106550556695601462971839378263912029624848006349462562391473878785463118696e-8
.85877226546703739404603170759254054983486391423531723280843687335184212691e-7  .3733940945562655675390654233439381909348069090030509917791043698067837362870721e-9
-.582110758697847979925302420491257630348673661735119016143301906498482985617e-7  -.17924925401016606847293922679074398617178713332423630247338050706769657826908903e-10
-.1940513523016897947904427142615280754715647374969505211374837025896009301653e-8  .7806907461383875727114590170036502825354164371780052280266048043625187500920860e-12
.5570123028650764778041509596156624268246883465920625970638119288735437750139e-9  -.30857548619005308014617912384582213189516554549931016266711357102248594120232483e-13
.2947752251094211355794384779060749306878255029701746948797327284956434516092e-10  .11035446363112268913704533311021905692621819077021314768635890681417877685844625e-14
-.259211564474623836652566408439678860610212704307298577596554036504360938381528e-11  -.35447011171198030566162337732534306910743846790212613510125696377430784450331943e-16
-.226604049832677994925749951648976691909171137832133745089389010986913276317359e-12  .10089931511633881223118690117123117020901499713364467937558136628284351649021926e-17
.119688428683958962905686429020698145006003663524139043166045229027015740188795e-14  -.24855325247748066468392112461546136374227404406110642256194213821064351264090245e-19
.647183549256687255408057401444900488656146246032820795069365478654899125931157e-15  .50818434806484150533684881990992488467466018505578414332050141962681561894477731e-21
.24239282517276630813460745613650966430063626521162250714809369008567340589860711e-16  -.79011793161760955352412309060644713532417987890429639300801994999579435968830876e-23
.29471696864219936086407415782761117030029885040989543766394009033205078302930960e-18  .75888779834012501965676714140798933231048707802573586846778270933346755396598281e-25
.18107345778570664038314031135860187735424872980419054853928031863735329507714e-1  .94440416202224093312381564489184075826414727361796376369873282147943643236155738
-.9746677830044664587403963211033294974727515683167724235230526896812724609480e-2  -.44523866601409113020948664665013271409846911056048941214425573368580781017881885
-.1800028604348378209396438420292786343025887266140021825988112117640877863e-1  .1093949914015928764175102652773611144313197430674317241288964050752161714872570
.803898150059372825749125840166361509721493565832039765608204565327919366e-2  -.184128654498895045956681354646348749402028440469733046408274951760063414714734e-1
.2059827098584090840979209049816016505769876540486600255347988070502507178e-2  .237693564166219611049423273096001964228010367730520891826777179831574018765441e-2
-.1081820750297788148446292287462272666647327055747959576519374464872713042851e-2  -.25003702041097160129923803975071054405129900783879370591596364532055363019264377e-3
-.5267466214295906621296728943814399115439763752773431502251033909618141058e-4  .2226904988695293837162288018153371780749072880891819387427457334607209857779047e-4
.52426566937657320711569794322144703660619678175349130089709164656609159621e-4  -.172265037141573731158768379048425553097215014777381505155269237104605459836018e-5
-.4285664493677127881705849506313452252183765704415831475009220995343914287e-6  .117885488760924011894225278780968918034535028118075627053829975398077161098205e-6
-.122908793897444909706902747969024034835949666626834278585631475452996463213e-5  -.72295043476853689254938785663291456413116034677954919301653513596263851122638e-8
.29511575788863900114987305875543536108825251149567873401986238130220479949e-7  .401167537338088554789130963512971101005830648622433386627163866068200264097749e-9
.1624007041837671201302614362308499511352108156525277982960818602893902340585e-7  -.202662332152263204857353985256142057262611456452533387299011419767918565249118e-10
-.3560954753741905898450683389480990455189298998836078176574430419587529696114e-9  .936030706298162032683538031170819977992048754067271388165669561993278824848195e-12
-.12985096374510541434776443865710819142288202909871623410166254594193752723043e-9  -.395446000619446651485925866935105084974570989291667749514761591245857881297076e-13
.1331087003612781214484408074156897369646271001440308954193171221749749234956e-11  .152730726544598715499725555036316776941597822568077975627671680932208520223438e-14
.621146399876223232111871275444156745239904826458606316495933575785257604086432e-12  -.5352263629814617804544598264905313770823189220039674758135346713815015022429491e-16
.32239842033726845034178849465265209898906146946330338304739855253741846296410e-14  .16909554425233228539925889726410825831183596587830531136599718314243930723960820e-17
-.1560211019024070548763175522717883252576450693340189400005793759191487787767417e-14  -.4685555171090894316836204200406743050369833168323112432780587457337446980099764e-19
-.304266411237034630830190362160996043255383623804012144209704048327772329529306e-16  .11227560811045948963847753530498105017694944524395003994295781538313983636471730e-20
.13448480278829605879846252919777454757520251912031284567053075763324378440143241e-17  -.20665980184656547404900560635699775499982462602022385792278738719401187904580356e-22
.37546251550046281023955071553208431911063548789179276587335061908326097080736985e-19  .29028362728532928401055848775486708284165761944903073495447926200022452231399320e-24
-.1576268130709411594513902025189052436150896797890214487540123219385426224150e-1  .95557066890014960113411673597911299867746368132587759033535106303076234638570027
.1339718432771703371610629848383519008523286356703914680162775257558117470999e-1  -.39836607182766769193614599673896531441749509681918525884888312194676009458350857
.11301998334874792806672068439302822805929436021786791798449100381081432e-1  .87680738465230004885734715204675928199427877588930647809754763080351362655348e-1
-.67764796317938481557978130673228807792909900590113706775854114628458695e-2  -.133172035308981650864507317325569218308861978536753170604325794701927509984482e-1
-.80056652813944940017989327265593581300871482325114148075490181853291574e-3  .156036251194312073998752516330828832332011046244098920245226171229235595652818e-2
.69091267300624301084876239687891151276931343007282071992449075333080323773e-3  -.14963880458644073587966430591532430053304354208327995618733167972106915338912892e-3
-.487954077751185395517764566579604521206051218798308367699462826329653266e-5  .121951340927028922065728337043457364921652865909472936161961350820867673168015e-4
-.2665441570617473686538793510414722611827072705520158522393596667402021360e-4  -.86579533411424868590309673947530202680291565977415626573514549261569514801989e-6
.1173399853543516517449527878903642100965174788009269082267854869100337775e-5  .54516648688775912712407576606981289576359197547507682652943359492136126386722e-7
.5100284930294298244900429830196160780485792850216147588847331320181684442e-6  -.30826298634129170994672586341710468682902910191804141753645775936512125976418e-8
-.27414661342658809049797119013534907600498033752091382953479676276769402420e-7  .158010002932584649479547308682810592580123068898909995765586611923732236539668e-9
-.56491569432269609319514060650465872849438869407255965142494514257104760404e-8  -.73839164202561345829673003079960239899067026129741125465141013712639561854383e-11
.277538385866980729119814501917684518732577348427188938858426827397353124583e-9  .315904004251461967427329532581767075571370774415085118246697201195502500447198e-12
.3951698588435814335005379037486191333599381148542973219725522150926819206705e-10  -.123730335317033230855361440301820256053549515969670816148254761696526505504704e-13
-.1368948674758817725687176988917539329279528131821775530306435165093203382809e-11  .443547647005719159484124772640589236029104593918171122413743412218312898607860e-15
-.177231669189633265823271714603935263684049390508325507300614170589420097914882e-12  -.1443078709115762937035600739371750309902184519946801698117528266342702610910741e-16
.26789056160123622371839618556114176688293667891211606481492949951133655489446e-14  .4238888969543076230167538785983231837653385886207231468459878507544171353211053e-18
.468406179587791934511752764230790230662962417800213074827850866834909580290898e-15  -.1091145932498666578782235688591500956384057706984881893673313561666135363489649e-19
.192821325244155208236224457613534448875274900948341102478723951612777808145690e-17  .2437622683674946691315846512501129897699582360137154862249701769194703083892230e-21
-.5491632482565213181618872894595772635952645423499000112281550275996139669841256e-18  -.4164072622501536580704007098836898273152784430264219540336973049621779142599730e-23
-.10893531855800942247402020443531100291022815769445467974864842137519535672164593e-19  .55202353406531689361454821335216002876746416946340014329673674917751592523464522e-25
.1082116299313277797117321845042142177140400105425287458412193388098700504960e-1  .96706105779964645284755271159059390527463151489249029217518160921430604351427725
-.177513304029729697424998903387933024851428096792100101565952863871498843995e-1  -.34024623018542121975914712562707615706048414615125522596896834704126125884430767
-.4156838303270822062716231710108324885570462885170099246364854836629242e-2  .65189521675368922170825878515251740802790768046813273357798601908574613034690e-1
.57006239903800894575432589344937250178548065050614984080475778150539308e-2  -.87359267021445958947610291940493078256022231792756207492770205539606922723258e-2
-.1212508748201241650104993479085339134926130672236031370532975902136270e-3  .9129713107183289420213980015116396006669010116311297556128410138159891573236e-3
-.43019128116342886685465035729096925991995447836149662727893536980656953135e-3  -.7866428694218997189308881270005201938065952259573865109477237935398425573946290e-4
.319247331225754646646262324197774152129918091166943544105042071397499768e-4  .57959694503639217112287904839984894375885816233451925967771799405753188763963e-5
.1302720430609811890621771829030770460956582638837287256024985787964015387e-4  -.37371306661417482348477392602668209907622582719799638919269838481307352010522e-6
-.1167086269667201259625902767416889056927680663701762414638871963522113349e-5  .21459504155875057001261717641525596972618051341081190592025389637385479356650e-7
-.2036751142128874689566883731391431594622434347876728811091936997852626160e-6  -.11098806796679880959362238553159540180430363596383284041006571694817974372774e-8
.18220527601919396917245591550791929644549061690384919873144751596671465619e-7  .52188869287556217988064405115673207660528517879553964788296176357640328085323e-10
.19218284943256051867116878121082559785729301988357544788550157094584352852e-8  -.224154910101979926853878680653585665277763641513924318245838066617340207264582e-11
-.1471867787298518962383222151314604400377470144018162244781482235166518907757e-9  .88346166143890927420499334132793594157341130351807780998193315510442978405158e-13
-.1197853532229396068888372937158772006582838625319599487193468556480001985881e-10  -.319085870619292836794402972640034859578602636262990775230695295059224774972506e-14
.634729544110555712660812000481117426660984182137750191395060115610174007595e-12  .105718806757812492914986571853179979941671136717895368538403102224760273400772e-15
.49621555645451218352431993062878547652380904349007821392355970795204745667757e-13  -.317832526513395405614229776099213895077747590080965957134608229659665772500262e-17
-.126182723389109517488795124289517663514524992942113859436861082291470391205719e-14  .8656554935290988649863626415867361371609989595095621747580592558962103892330828e-19
-.1234307298519256141961924838833913798059711059509899631547116697089053946819736e-15  -.2060509429535799208579265550732757583552689770799708705049491068083044071879651e-20
.14409141528786878324465954411414461602673827425361210635921865742333679452384e-18  .4294058076544302812414104806710266291208977764232053050290134478917211692011105e-22
.13732392264195336478259965885120013196986079314018021346349175514450010034699691e-18  -.6765641402551731745399337865395870717380777172346976503901256157848890715379774e-24
.23363302180217595982965085874784830467927659310055033184069040260009276115205488e-20  .85841461800191542628467929884377544817122494910830552498638709723278996540693495e-26
-.19003946792241562241338635037057125950373887432497649772545211927731868573e-2  .97574726890066906835760845468141351767245511591275992531605787110488637061187000
.179951896892003058050838488812865743665618655965804394961986177500210097145e-1  -.28641456888972224969258900350017656337971454988036687138206399134670080237329471
-.296000859013464926502325221149148574240865958032201933289470075799698e-2  .4809938312108237666543653270488846573838279285266930735956570475663063852773e-1
-.3946456794128528835234929900328478662942707771867189204036770882460178e-2  -.5723869464056104550602800259171494215152384139162460833532123406002813216917e-2
.7275355223624933110966484839665903746140994600128814253804979497904193e-3  .5390612296070131373409145730076620969916962906010507417763636781957445645803e-3
.21656481684590991725642747046383145677730358546024093757551191097512526128e-3  -.421671133216775805199445480359181729373799807371563468058902755731399902683021e-4
-.414633756278409287160897077502893566390166531376714159171363777183359617e-4  .28451736420523229063418148785655998130702264112279300564313751719853733986606e-5
-.492906878176488633802969933336589515616282911992147183098189528306345075e-5  -.16883651078208760195960500825231863117951419125991658701921800509036502558545e-6
.974508139155140426584484299358998300765458517046632711960105739231943994e-6  .8982814444076339669830844883257848446020887117451769415354208138133726530163e-8
.607346097760282262489720635206692026109038332068229522637771253983083595e-7  -.4320338478649083084695200547677671748410816677170595091566858216050172782174e-9
-.11707188545067352870083280000821888513195045810803848872771292207254113637e-7  .19013878910749290706910628970689633650094288848600141515848714272427691569300e-10
-.49585008479065316893927171107163788235107918284801810393256503408697091009e-9  -.7663715982586167707640719626064494607565642531924512675368699182278182916452e-12
.789886595921063449476977059422185076829618461006800727175693462773182442568e-10  .28566562172978484784210412535522276499089862764547800818359883270662727966492e-13
.299315988398245473152009551145406828580788806253779607145979789172089999740e-11  -.97691460502304376391878595327134036866956160052212945553093996703249000792449e-15
-.302304107293886987343599211781594257582999604330786418697883616833995650458e-12  .31018690676055754342201892680825974384619957890643329957161527372933777218468e-16
-.12705929298463969075754170410649505797664290122870629283880728807493519783566e-13  -.891172779351928824286668600034804689978229331122447744492998899248429080968514e-18
.58504625521593809255460007038623462099704682807070854914693018869467093552566e-15  .2376625431915818281865244215753982461304333501113939456102986889370725840414177e-19
.320739292987780758674972569401800515063121648282004366175130939524696668026467e-16  -.544952117294580505399219805195154014562488141076265967159352883617099948326319e-21
-.281286188588295240624455544447019924288955055359322996517781263701947499755396e-18  .1166026334107667374502282966411168686872077522697782426332432870443358718883485e-22
-.3507271690963231211478021028897210040158169731235372532254128058549685443030740e-19  -.17613947291479905270144648572339956770252567709720895730277866132838331806405263e-24
-.48822511310581221093736765005286716106561065067443187822652755935247903731857932e-21  .26949647946455608417666996685520405024500062843111909894174846508956071432051217e-26
-.831378064803840601218114291883557365561670416515044152947938883347707865485e-2  .97875450112408069024674659709733154679452292316029884373024493628776790378708476
-.1048892352129408801146989060196193398193899768318021372453916620297956141594e-1  -.26321272668604381109300283639073851552996701160490139871008731082424982538268396
.797539856596281920020064501553961808428338874431610066611428034156090e-2  .421582008609489687970551808373953896344351574778705400623417128929391804375e-1
.1192320237861640504955835863522593902322474241604945796373008578199301e-2  -.482198248162848352879860966012939634890776105409964868985192355956111741731e-2
-.9345677861018061458035244517189354845957301041139494346291593878914368e-3  .441852223781097056585842316101048610438953417662447484651428981567206651822e-3
-.11919593875049141139404335263053187859453747444014907395355976698459792245e-4  -.337976093667638733410242921694752142030049509072416298573567673501140116150735e-4
.3585615778446238931001747183414476208263138717104426314171395788945161670e-4  .2246250746484193725812944537277402812789334768106378417205342029838799818577e-5
-.85806776885734967589530212893728361392630866904853315568788809272957790e-6  -.1317389833343589346303472859779295856908682249307086310052751256959241211019e-6
-.631732500563341389122454498659967925342057056108983241876906031316106716e-6  .696520466226121198894267926486138809425528555571631845514519417792898455795e-8
.2122220432791937918267510024390199738783655768352203484599556143113992453e-7  -.333612675593791597755640787263011558134953598750211762430429978674850891764e-9
.60726851546486983021316202827519078462199861579429039579082532711887346909e-8  .1469141111073329997559971026327575009685417471974503405808908647750756324057e-10
-.19024403519640604022824257215490770282795803850984989408382321360428967808e-9  -.5930373717371200344658491225523485862001888110274876518416494470095927821933e-12
-.34923079784514665122746080114869678566519636815228723908318430888692586736696e-10  .22245221690519308172699292086168632345528191373897124913559178830689155529057e-13
.7710443023935242552932099442853144689152950180271273610715789694105168797864e-12  -.76485774803533945738300605189302188785181230754433491602696834878393522012929e-15
.1231863349856669609126628836838346538811425482598216527079437196293258736800e-12  .24561245113326888936798763181566140943676147968886752290055927754788249223096e-16
-.112958318672811509795341587697156438704727856268760478465508565584414188267436e-14  -.710776870277416690042261130018315985218261628530867136557816252740171964660419e-18
-.250481220909265320718480724453479391844417359050863294180451600709047023806217e-15  .1926676006267455690610167438583899317193974821351888730771656896764056913014465e-19
-.105525342317589427595479130876137038625746063172502575447172525568782243748005e-17  -.444378851300600401901463580221996590620633256537262636405292743708555077592558e-21
.23003178381811853750545218960147501806140805397012361951588442383476262409098591e-18  .972860172250293748237958976289302600924027408487802007278720036538234574869550e-23
.35535128667961215417339020464820088695918388669318133560798821942243740495052478e-20  -.14674214900607877540727899817765187388453852098598642706820171092481678150823567e-24
-.13109817961669085712984470765249037096511804818575847330334366016040792194652025e-22  .23262235748889809373908587528442845015749167204104258389963589376866961451766101e-26
.12925746822507150676642645252465368908166092122023641726289049912319433412e-1  .98005739785800081936614913079196315406136556745093295537585892694624582245438668
-.2853920015603818352369725280049365679517078047021551404755451375032517535e-2  -.25750069524229828610834939213925437077872647138103319557308576414843093103460636
-.729257225494326827398412057901349112211354532367309617467098401483668e-2  .395992944691012736048872014306944107161751962284455418700299324317149158587e-1
.1548132226705232795149033506963600696148188685856592366671051732505155e-2  -.434342791483142548658969031872339344419878569362197508873431647294136297140e-2
.5484715577852181986084675786143625006076967206220916085930987857381824e-3  .379752854758413128500150329978989056414253124944028302837731628132892683000e-3
-.1199229241263122894138974566846642212106949638452799993967518609369640446e-3  -.276856603937924990546228792838489754168135655184087546363396617630869885109064e-4
-.133010252984585704102377947544596989356499554810514806261985920768890129e-4  .1748011328267344242457043062474295404211974246503265795600665940275479697369e-5
.329666218893403443398503825539124135740531805638083801103595072455893359e-5  -.973025196560132104738255605177541939238710510954230075400463587220140592549e-7
.137890816631873946767571872772976234936599672716465185277470647109210208e-6  .486809392972280611356471967213401852331498688996555846426368688897607444703e-8
-.432701929772255367607350096018521353971261764799268175624875345354564312e-7  -.2204876471022301915402219775785107400359554683624196185812381109449865911352e-9
-.714351955033343487066633474737734702401792689417010822717325991371694256e-9  .915040402458973856660120838490244652351294816496183710261191290047829064599e-11
.31322513331302310757037530619265078264924339892766268919691514151671909091e-9  -.3480086991264332182568241025838754102956701489538520886799221540652242946293e-12
.24425413893930611070186213521909391334340549766061676286475343783101119561e-11  .12242502345345496406225872310143552063592593680092945274307022702779757126015e-13
-.1341625363051373942385567544011246189245775556990467229228536543562353114254e-11  -.39512255118641376163602343001471868092251602702300692272007187410412109420489e-15
-.94819747114531692821230347975067191088868795020450799777837135649011571135e-14  .11821104992686780516138389830364769375572419853958183557656853909440619456851e-16
.34383169306431829290886306999823231632945966592537803251097988706434774748392e-14  -.319997827207860143086757739755225390145429687194268805495734790847488990982449e-18
.36115194806965345017866323980310014340922016176587238446550884688876539867608e-16  .799444104037794748250485373005969068590449688907759811815440402451107304115025e-20
-.492746403855556824814503212804757767742175676390260375805792144690138575832560e-17  -.1721900688063043676623307750807833137256056973481164058275522495555749863032725e-21
-.78099147216499221685203882566044088990035400961828092005868167735282945074620e-19  .3396418087822683862417185029217241077127289264240965353237822748238131115684442e-23
.3054257006476990166550176516542333545554171871360695905077514635058635789251697e-20  -.4815786283699572109781606571236284103683630331181022649026275921164599621854388e-25
.66045284227820455152035036870114568764937179098690131476777735068121767492918000e-22  .64335578820297905546721679208410597750948839344057888110903936257566365091858733e-27
-.6696594665360337311936590925652671373101871081703502026854230771161152064e-2  .98497802291661019521994893237479098026656124259478510478923757751354727075291475
.12093067277887440086520435647092320712150929359073616549202581003996902229e-1  -.21794165939353764360887845312345797996855277923085595398649535683610430901694761
.147292757516321637080233593526651078410922400858281356686684743494682e-2  .298689887404586544194377915773971689831281137593328187852039997898996931594e-1
-.231548855391507484740063453340972007184684758191985968101933697095174e-2  -.292899683053147349327330441834435076680149263433940200604465043320372954641e-2
.44923724279431205729049622824356328076510647762979351270773745900914e-4  .232540610007983849479800616229878528155102149325661553860216998617398169865e-3
.1116701581606493349252335003866036027295831194511902362864860430545923116e-3  -.154264232142214890336906262412399812758891367135618919991017399505634286163537e-4
-.55225968524734596334084042907581313416215360060612148867811489450453695e-5  .894096034841208293089527811127057577703186964355635932144941461551839397377e-6
-.224151761035725070548601226230983828129180815665005525077566423757687737e-5  -.457211474129881343387394276510177040034675662271718780093456097291358649534e-7
.125361806418925693684539991887360296703809530588714847802107837241095777e-6  .211585270233075050381227225745044796211735409936097077204317677814376083479e-8
.235613454513256676769094755626301510050813010526553428778299868845726773e-7  -.885881404032442972241134335657239295347582530912790588547601905950722009056e-10
-.1232930183093464793039681551608305948336579121579236918015001879858748332e-8  .342236638506801076144549648048537279414557001355713210309606282938175616787e-11
-.14770929412418680534198418237567570057126945133053006208229530964121176453e-9  -.1208570020586708803555694401197145813513802201947905897032349910181355597936e-12
.61992708920067495010808643124630875418804465060139415168692538628915229550e-11  .3984148281453526531918185862831144843763564662660055808486439721848961956091e-14
.589748424073252853370871989714842760636053194264961438009878153734659000531e-12  -.11976242078663901821331928199996178984004082003171063153044765098756399277162e-15
-.160326754780535648354536769692951018217810298832537160334897297453289765018e-13  .33885895640342335244003301352224217359281496915488707173888140902485383106419e-17
-.14989539365163765767326538000849842067810294025320702878412345018544595524698e-14  -.85519481119950861731269119555094106339209391793100966961997237898877774720891e-19
.16681585311082032826821675670099018716997290331738472187736576865605969678984e-16  .205476752064687869096626203945656611037111222700818153471277611675918567200326e-20
.222339239076376220092133234828608185769520789565668074118443718981957630394907e-17  -.410772202474958232210968876757612904481452436222949948718135725647032523024110e-22
.74975449698174402855642146239456381277925327018858678623548057766700689402177e-20  .810393027758233446177664719190177731264481710473230431615503046231178787116246e-24
-.1461854071238130278273781124459870247591455098378984016764243550030327020520994e-20  -.10423836142121048783581778029677986469198417537169997545535631418939906087547739e-25
-.21964691185947505346467367340712823149613077039839318898209565003790430598990391e-22  .15681787914068469760707348825631603247876005317265915293248419181441162415679092e-27
