-1.2442345400630397890686023328846678986421047516922584778074169121381899837067147  .94984173413594851388283178179068234147935800297567330723074235423561891073616614
-6.3584401017025397011651957816925495408302845725751467021434021661442164820618057  -.43245988393281991418011555929832489708116235549042741002465616373587068236665030
17.421996809419671587168064911749652877910797914213949629258016058697689241819942  .98997017400202497905583135314089117918573713987750144904306870026269214605638009e-1
27.995765831064321545493226270292993296338055338462234899183220088625952367386356  -.15172906760067312295173260780794361038301550164339237249910387344122560441952141e-1
-23.874693602763736413326515212301860141098342948905416285414228849430181938915839  .17489815519978873131877049288270235167614199750038772068008183350096789681454497e-2
-42.628821176249702804306121635192307115398027468274850468181558976799208486691868  -.16144392434391981834975536397800302606235069018346589553346796760729025272242446e-3
-7.0989188460389056227356569241394317716463408241789183606042751072134629888605508  .12404376554234381548947322871939532572259247055542563085181971839215485567131256e-4
16.197760064629934012477749735122487543013779031519235543644410953330695338435099  -.81387389704980235611558640252574429667374122167690806692678113665642019700329501e-6
13.312746843589541794132380758067408105981744344031077336301883265455896940605810  .46404753198069519938826064154254252037360195451017734486261274350771918450629763e-7
5.2835745428213738265675608870824588009530545346425685549147253983806845618126333  -.23268432229255951435294982455013656907336148930418549892513405714089055185810683e-8
1.3307479545316751345601927281690524300137294206220969267162961437071502629337563  .10339806584136596228964988376066408405481565600709654737771361101685509716110585e-9
.23280321344892742580356522729802026941912043375866653854395418912284755303667898  -.40888056871050245896049889557140474239713725671092645925453644744877971673485451e-11
.29533703061529010956247753257980515965561416870593410594550361829224782267838296e-1  .14400173670059727227357643418619549720999749188460244776906716826429354770006177e-12
.27781134911887279937971646700388500688519715978802919747258460995251157690675407e-2  -.45044984081057248332728185992370208202124124593210607765980503359997690076677336e-14
.19561213405138521388400016987108996528677301444677592983088819101512243182676053e-3  .12429350378878349046226613379289378294173228123787796767389941507828081228550874e-15
.10299708794461324778373489266300376210087441403523713048306860990016585834871366e-4  -.29882571935600508457620145414336780575343668546886892641392418673986921240504354e-17
.40064779198762391257215988892120064423685553294485119407582384550104636211013200e-6  .61340194437248714690903228650647469827219297961114254008214681812144352660180028e-19
.11203880561957288795253380062762118662115620880843023438437765123655638251800880e-7  -.10399634621291356197348874905037725755912969030745386611256157623497481439580648e-20
.21366691811620361428286163850642315415331163026646187561539627228598066186174469e-9  .13755446790896169575827547161751229432493233555440567816451804806635514947480439e-22
.24962150491317089206687565282629791832910134491080771751587923575266054055200286e-11  -.12712481701687678620540059267704599575598320224212872392528070750975053687892641e-24
.13527453302944236729599121197021028983787876709979485319500673955287026360437482e-13  .62038777291079373128436003022055657334079179099132446626470447857987421439157361e-27
.62362498246988298245486483750748064934871452584807605782075919489421077281804328  .94619045192727972037742292030098003300580688917749346468031941898389384398135477
-5.9461612988996306693697193033872987815180424399514415461990267208504853274536218  -.44639100610841922569246689798582707151795492162261736608192608163292767672927199
-.17605487225094569829876210962707540032959698500263050996965963739620059079  .10608466304157374227289415177649096504370542978560700924648744560417393305865890
8.147646578201726441194477530449911693635322610879041988722380757910540882196  -.16914027645849517290870866452474737446635031178538523760356551671937599797207287e-1
-.259018527696108643241807935975592467156431621079927558797085273859279170576  .20327061633293037139055313172296207245089999393679486895250821761196936817339960e-2
-3.0842010288990881885805856114434375022847892740358234599875749995111856332547383  -.19609731300489220760396900295742813518026130207739714834898605726286910467281658e-3
-.175458527643607124968484180680145135108878098866339916552136426928416798802372  .15788182483975188322868134082005906749901922132710993818904242675022845856600250e-4
.486143506811097155624279853667719607262970427368666809386578511005095062755646  -.10886261074055126971911331248527556755337392048327776750525860874071434317852021e-5
.877543270379988208588968426113177229661843743095672035620024139289529001755e-1  .65438276925122081123670073121363880828184066339052831550376426223730896761960920e-7
-.27884832883724158005224968776451304149404445145844535731020938084118331505402e-1  -.34714630549254252109358574576343921504133014778050516266745080173776378474253253e-8
-.1055572375283823815345194984646258083298868893059215235453412792993109566820100e-1  .16384370702669475725387127030777486511878549830339999057747726636020174851424145e-9
-.5999945995810626146513875735749932756092552450546035755875926161046451229297e-3  -.69115727410871141090008810792937892703598691318216276277495958500286168887137504e-11
.28613883806737659186180429520894937938623755600667524873417516793289979221140360e-3  .26093456829701620932516671043055293278448466535241703494376519936380127401105857e-12
.77391548916917014302107629832820962443429179709625269281287317641179024604684296e-4  -.87980396347608892356284301195714976984802080333353845253580064671390435651467307e-14
.998189366265196299806043339142026441213436285091244854827389488277174148797057e-5  .26331819265802707547632258741739856360737874339505236325752892766108251854844086e-15
.80761480450847694164045353598049266815753794657652007301326442586866116379118546e-6  -.69159949024311179171623401486402329581303714626710659287997583940804747288895930e-17
.4379741640450494332952856077648142799385401981973122350421796112736149921408918e-7  .15637988986685868082532168101205188395038596350814706266679249211868254718143946e-18
.16038218328811744607114955003071409559230946133556696684949125030422009036382688e-8  -.29488351119693144984364693591514441762249526839819582452879256719595589793926679e-20
.38330647717932489950711540943510178433915858123442908304176933885551245951747686e-10  .43880024235329465863550543722469302734844644086507880083643082211725566305724090e-22
.54320225710585728249066588853741678897448512832885437579837680021219952058776491e-12  -.46252971968842798854931976296185319830464687803363508327541579424560358705577303e-24
.34821662252880642857289617642106502481488686843196046237217390753802325626720614e-14  .26180370855949290693446292835875521083342243943434846077417320257439862040089694e-26
-1.7138202315078640977346892613670123495971354798180902717072758947755016776077176  .94226750017499859033584930659748302921878659637352055856454069440793960742428665
-1.9605843978403853520620070414243509267965693115849787186246686558932510323691295  -.46068612031161267678431831698681877852219049178600966610184381508788439202869283
5.3527214870066409260677360893372648103326486051107357360026443827952259270  .11367944367632918135150976681515832075731738244858537282732175391325281895287497
.3521516425530051048719724983233374563274999417920134021432610729942004856  -.18859769585171486902602641437594180658996016324534899104094097916496615410180095e-1
-2.1957827086626442491761239138024946832713821839597625257032114677172307344  .23638991085646722976027903823789942072010812204716081152016139235978581501110464e-2
.68434136197892019872602689104634807506266049407186517371377632340401096929821e-1  -.23844721245349713624492037347740582672789815891021252839179938027475231707320264e-3
.32153272173386288681337101300183564376791383997977085425826505316058454729923  .20129389163575148085475275439013274393614905432037821214475133573611484624925040e-4
-.51895845394640439388692151380564622950385691316798576649647942751920983367e-2  -.14598014628334079234980915754492576263359597665358818328355355471529373062421686e-5
-.230995929000095090480930782159267229018234052355654633156511932062709527250e-1  .92608309449873879237222846537695842455588931313196293221960828035638869836758913e-7
-.78191860627215103566920986867933736298505121919266786695191930765398595567e-3  -.52046703908650101678521363764046890043491126514116146252712675260272629448659340e-8
.8664935920918376731762571422741720008900646203401657622559536946190788007458e-3  .26135888684212240675189587497469122732133626699283394970803407232647578857416939e-9
.852235104963730510682707859756762544736891986627220781004486571885738468279e-4  -.11787460007415756665368588167640713239779734547784784465330105076518240173371186e-10
-.1343773741502456353459412266220531833649496449868607791219398237794929930305739e-4  .47842756669610587699203278816159374256665967054144234189881277284108463168799532e-12
-.2740974945827196500078883083639286819630911511252836840887059789000523699127304e-5  -.17453445139025066253485701460573861262421140205654529152966797150973274605577238e-13
-.6872466228660431865483390440585054276270765979115468692488637296237703140860e-7  .56939171854461758291944574330814329730192433834936190428603361518997490998444172e-15
.23453051698035731183309046054448023877121714033235144356958637791708004868427184e-7  -.16444645713369296191752771971490457496136762890529458806794263907808876591875337e-16
.3055613232303794271060710997927468724982125436165438677054654027393807281523147e-8  .41319368496953104783569567301060319656251863352670513921430700415138076709555768e-18
.18273595870236234553846696441941905984572780936728478325906826974985778163955572e-9  -.87702900918975095104308086885175179519135692699616345286762070090099088493832551e-20
.6158267899912674055802817826593408187477485427828826596191644449065885029309498e-11  .14929713311387612643095459148374026909798499120363589681946603607415883221225250e-21
.11368841808134765666106658998938383326839694029994592216945610663825970242698492e-12  -.18387912068936532607819388262829478678222585696607739670934530608444450872509631e-23
.90305564811511491136197256428207701182482876660431136203612404333253197658621085e-15  .12523798158097489619387538461091239183478406690029646995388657606996122744981537e-25
-.42404184751769790381366863575812350618867233875015218736453903109842541759627e-1  .93808936140191771132896757935319503799213415091568434779868824998060582403360476
4.141638571740455845462811863016374392181068800365740818294256172798397711884649  -.47522264839472363781485391642865615804050700162062526778022847142818617318534717
-1.918895160659852668851966633961715894189398639591918363200790381673331998  .12174500232456760736083966329010905023348728599013854780528717793761320874316456
-1.993830518879994956546616557114080404855472224240026092413602983501115962  -.21014370999721925407302675391899937344803273783326682719544775020520831707146071e-1
.9117497424671552673306094474895284630593603252569984059067160382831815536  .27468995979672153178968843190651578182191914971578800611821669574554829271237440e-2
.23227571732560053679924602739545646125226026063214328237718605648065856910113  -.28971141331546285227703459723188839311543701930620712765978723914013215895067655e-3
-.1148833678602191928450331523659287932149410598555916190730200355496768685093  .25645302927481138686027388622734603917649279396896356027523364599945960884689920e-4
-.119297551960208093257653040535540755289961930806947610371639149941593868438e-1  -.19564002914708084453629664442523097752638742651005235736008523601058702939305651e-5
.62438682534627366255685417982418302042117799910225113251369957275580031996e-2  .13102263424314365330307671684909447399084692814579690986911454057310155270235099e-6
.42254490014183716377386241614467752459512757837673975704980547419060278223e-3  -.78047984013410854160713965936439906420094180744378224363694191146740211761884087e-8
-.1764304213443330075103933472138186210239282138256304226146281741973683646066e-3  .41730250296076795221034625242527017115580236165332061820680447584590446814606094e-9
-.1261239638907641139257644422134831329221905777397947018491754114092859667290e-4  -.20143627245532862898732163806958358216564100682458860625720402512917146134946338e-10
.26578545218492614333408524554735731245084886376072490772522809798723274957750e-5  .88033959963824148574205996862027181993235857619590524095766679318282811282718445e-12
.26061463842974426545278108185195607070089720345732145528138058610964094168620e-6  -.34825206359439194942511182838044061212758787894425770089634311626927961499324784e-13
-.1673305572109207079620551340005771052334372373902280030003259556581729043513e-7  .12423585446945582958227279324711644970222200282319110585476932241506575657082688e-14
-.2878251824298937051127813902053054895552389677560306276498692822614944318066072e-8  -.39637618033069953098619010767947970674764673284960094999019334909574739149274366e-16
-.43618910199073309512462456691189944220539522913533387941580571953539602845452e-10  .11142739368705530196682011640874679163827322682432177499489760213617658201305885e-17
.11092322819123311942148126498744324098245448707572431549213642505439148253776664e-10  -.26896558083532167711449446574205629279102242973189715273121618037959996849146733e-19
.7968484954947283684494282930426778649336401915341674968739577170317683707664293e-12  .53233683198972472689528154055039029282228677465477411338882701359026789278943690e-21
.22290766436195880849452230555154058547955485340068998551735283490118035924712500e-13  -.78712530467116168662133921249521092776179574941246997904673212469840061449380626e-23
.23648591606909358215108329868881142574381212109992766785465193410881570712123376e-15  .68219948410037867471713847028592871305738811707040552804837935181378005251264290e-25
.90356052209019994270220336902162021798599130382078208850255698021260814921394  .93371643815033353156240119799284557449590534613329144380860076786141013973998593
-3.8549138603432166045834719801670184890561190453690928116035250584731220322532  -.48969542650045015136294989483152324805355073533530354028399942582061220294529465
.58161049852649697456906240308246555571546538541516604641971554221457357  .13015947367260190009935069562362858121887230414453372988942278155545662408422519
1.697311809011686642890486595604122913288494811764720027127322529685082319  -.23361463973615665574703145026932024758845523373885923526643798843443776547287252e-1
-.480574004351556804507437730310912092479853201197180199117228978903744515  .31829413532852386073191853015266072164422418647459010612607382881011345119461934e-2
-.1592909338110306498028079685740687302849364410865362866477369544815014128381  -.35082569061101863016981825055805629696597292542496980941269991938760727125545931e-3
.57424939289990417911274391035464855650619299810353945265710156632144139885e-1  .32548450500290608101990089639313183893151865814200406184032234513437398113838497e-4
.5024633409847056014272468813481003722206285635670234716021673199695556334e-2  -.2610790389514148079320483514912126462534996234577667242748875778755572517941926e-5
-.26414564846295520284655120552788782136058947797750233675638429544600435891e-2  .1845088122104599873106317135047920319316752423247783184240261898950278758764869e-6
-.5788052083461731243809529169864838761915408501617960803974461338235211245e-4  -.1164537704946005844564657393226992427494085975927997895539755772355130233533312e-7
.61773130256588008494619709642518586675233431899745652803398077021793974809e-4  .6627953825610078004228986088389815352841813286481474651090849167756475761589351e-9
.26014648752437759903135303007216177113625964773741770456790565168766752606e-6  -.3423887140750148460558904369999421640230522012215906776455430022867783621463246e-10
-.8367455061989974524549472845725292989126574948943771347725131249085550430669e-6  .16113896766847190219339436496959864088235754641500157794096364372371391547951389e-11
-.600454842930399112404756791768121539604640850811461501339476908914950245027e-8  -.6915307378085279477301474172459057289722968021693670741709747926167056266123346e-13
.6808726432992392510534441094576744028423033868014922305310176138818013852275e-8  .2700486271699377276584747862962319800354019670068545650498188132578738628887259e-14
.142302077305001581914478548104222551321119053605331083018924891448687341370354e-9  -.9535200847770684036134990561030538276455539204285410867960586822683039596122285e-16
-.306276870551894100817184715830908442302989956339989164530341835915777575907630e-10  .30099022686095251185472001518215517581455218249162763199244826011644252836645998e-17
-.1247371043206339143494273190090609643201440717794179313147512317433104289669569e-11  -.8307214424369069505795092587415112135350224668560628964626222582472876016930447e-19
.499681759525804840821101756226099682488561729964934811620356601143145894275817e-13  .19373227020542389339710494961488711523726216338326900203170091648644318001725088e-20
.3816738421117363818835054323523061452370613564880427279583530283893758372249971e-14  -.34946495458639057145873596997701245522885775735765067593558197980112528191984320e-22
.62422932406068650106011221087839724077950464505462905342092079120518898508563219e-16  .42415980284050228102797408162155006372723863903516695622995454648872376860854614e-24
-.9893770152096291208608733271775960916700817248257355657462674865479075960186  .95373120300545851463800017935635172567462397271427676835430928732931347306081333
3.5616604295717828224501455041686704751788886457521343166199344009785499418521  -.40571442547124037683378942268365637732254349370004753597958538047072283065669415
-.25886508947956989361255784860713944019680855383350697681626477559360759  .912546019067419817957990722197108133555349133511574153159459596387819615182303e-1
-1.32563905521352212372423589649401008761712521034153017073315610203299979  -.1417170757353974905979588652324366797605984093258978780841238301316943269036618e-1
.267118424157656078483074606139825396411398953656280814859581385898076209  .169900171871251723889084976317071209873641775681005978906216944717054513482784e-2
.1119280758774737417385652457617876541375077916503499724138286558455248613915  -.16680991127254512813233197756660351855384362103938195990086102243610715689284440e-3
-.27669634303835314592547482658785343711514878522395533658967317184939093259e-1  .1392779919604964147887579576632118624690031737034279832871397817724349786064003e-4
-.3567976021044949659287119135723754735163489992805841581712435610226598938e-2  -.1013742876072955933179326257796489945391503755490521330177413138697953195329363e-5
.10727458825478586256496128270755188723402081395946016527419909864329302684e-2  .654993358441186804116471121014280745725400732658974816182669458739862113067996e-7
.5582105285463393062413377570795942496217067325871263661348567089378705284e-4  -.38036576596505436634868586549375892648526367701189731065717577551699392604508e-8
-.207615206330170511970927562886942319110670732953583568834667550708604964780e-4  .200467469893108067507459374696696100938235244530208545030613997659736293565547e-9
-.57922407605274718879036807182796924319418354818246045151944323490882117238e-6  -.964311362209744083698198774817117922014032982184567396707219262715060452677877e-11
.2272480179710083319203390793786412691192298817912744505002488626776577286571e-6  .425402223360278427386014331234053055079185465250097226321585946549579784681375e-12
.563617040383835081295331288112262685324533136808747190712892956777569091032e-8  -.1720590572881756459944888348865385569019830403390055521034474514703436643458974e-13
-.1451010971818302026038816543914408886285819604155867325909863156058692429848e-8  .638756991608683895507464115813550260605205359881950168410431964602779788727290e-15
-.47116038683924077001411709308150268912322092854105630613418947228018908850164e-10  -.2155942077002840805005142231133500296357144715757252025826109321832591568088620e-16
.49489731148681759567035002441566128020879534351730517588377562034297314162384e-11  .6608194626181175773336454817590089915162185940515793621801799153329092937549890e-18
.236068695233823166394222403374584889243486763634654333824660435670892847688942e-12  -.1776321309104332182390983758882217120518056561636306357514046602092482841495721e-19
-.556634865568507909795714605349079445564455434161460297649764379502942546166518e-14  .4212668958798534772028909936985019247223362347921274829829540026199391549959278e-21
-.4909318936740993156003071928826238953055643500191103846407147301191969756511945e-15  -.7568831284018792396258152786656631044236455192316507325482679760217744959124046e-23
-.76976756645383384939906634134038484042756407135351038815874325177670320760660291e-17  .11382411681061565454002591375848111543343694681144343867426510332605395953488958e-24
.450346334243543041524466046461886929029520846815766308029446110199304280081  .96577914585656196254342013592585842193342897548830979492523612131907926253536686
-3.380610306996635957637930881348048671624285538592716861248282301805643869356  -.34322177647438555640857507215865461785617990389146923480262008394686296948123063
.7017759049083568733393783941737551070001277872242084264226660399535664  .67671792587000736911512136461480736187534959236235094491346138762027883728008e-1
.95454183890922315576690343181834422306848586331475751513101018212701697  -.93807107840876580977624840825030523872471164728247212326547969193898319125488e-2
-.24095029040921673201601920734207556663340198629702079942537891498067683  .10206052144226071059908535958709904370751902788421011278891414942337073365027e-2
-.62320622313811182661050670509334229745743969115365101163400343838914761200e-1  -.9190907695510072595182932591904076427363387648171722968205400815603461012409225e-4
.1808710775969800237552586134566155947599866367474953371622345057915026758e-1  .71130482444755714798422914546375257778720565855610688685920023593010097624286e-5
.1514246835261438869371790116431246212181445075184895257538645572923143874e-2  -.48357563242938112708916453239096815923984630474603857564444879874360623431506e-6
-.5527266481268379550795880932722659280513606228630991949181129939337741604e-3  .29428491490022187295590271880182676005963064881028917793698521191039859854720e-7
-.1729795137474782994916437472997777499321218811128441632457313488037389849e-4  -.16195717189082172710338493801671749968585560670076482258914658535896011800166e-8
.86648715792880537080887313042692508607361510168574470449493298490659793080e-5  .81527149972580239331313438343534966669119640798685177087649753965273033525409e-10
.13251907213579086685517359295876695247681944359223427633885372043950037778e-6  -.37649926513698864265727919510203478129088253099488728165705687710598886733833e-11
-.777390080423221915879669492404526758466477018873730002256745895576650102800e-7  .160827676993960747048595674857565329156992902179206325524346432252701449853549e-12
-.1175325453626862555896169648767889610596426690551070114754609433678796738728e-8  -.63224649724360636263001751179460406076461009919686866478994059609165266372287e-14
.4098384655777773072047670275755790972350071249561011012381071663802807208135e-9  .230793202583449665239382448047029079350347920361529945703152701805560331426317e-15
.95359115495139813317206453863460782609915466130625139164905428858849777642073e-11  -.766132061922048075154067577490846831195763043168119226676737658813113190298839e-17
-.116756142424226783199240169073302004042076470283844335793326619025912954423051e-11  .2357593398079714063632320088217955793861923683752612489898941057471620577946027e-18
-.430179104919688656807402552003522912516688433917512060365836447854623095023265e-13  -.629027435122489568065817767239038361196670010087520145688458828200929573598213e-20
.1173874552360932251880167783684049464618730808730992792066448227106179144787787e-14  .1556899976976592450372175663389795338368313919728447340288828357103101505131534e-21
.7678952026480271884985585825300716131771901425257075837076144450714999876366030e-16  -.27640575338299618944202366042430506203464015011643500029265911064746547972631781e-23
.98831457828374892120914442099977214785789921805743205529928105468227697570549235e-18  .48742943310318258640311674207543987615891427132184343377784473435184871994822018e-25
.654529058552718714307821427501797109647078995524942337060810134873809677112  .97051538429717061192632969199408476826014564458300843245368900442488718319517180
2.770427007286760416246870407765693905251470859812557142553159852926916397184  -.31411618136968349923522398075729507114147158588237790147310329233731826046889240
-1.4381829305824509395619437155894102677796553889950635673166418506350926  .5836326412036339524190504123329798781431089674102114532994195483438341313299e-1
-.50362077585233822373673220952241624437170349799473528462704475964543510  -.7692125692431898209583433410093645482377435866479431311996304251400691966706e-2
.257479087901297248788838479219944843924344205605332554550176343545698305  .8035768925459217009551060969390464873798274345277291327195817876512013764659e-3
.153442322597700127274534249796596160895820180074234852400931192058507668042e-1  -.698018154203571634322288652745833742491900850813613723714757349293712764129913e-4
-.136110672531839380078644554914922191493964344186632834228213970772717031823e-1  .52373842655142261580362215355987141869906533983236916965160345119056668552762e-5
.1583699324631161789134928547029701865869534547618051681068104090178864599e-3  -.3460042301172794074362289772228132260331004407193555619222428694911485476668e-6
.3141126887808936730255484783277421231996320320804664435926100663614671047e-3  .2052387515229341200895684488699740370935765787574401378391920666799576638526e-7
-.10850150348792096366522282168949788027789688920490075967635277062884433705e-4  -.11018052689200858648614006796116143970113431062384690807491632356062333856892e-8
-.384057117976147121805164583394679579693668093981744150609105842900198024902e-5  .5420621215740802638215284219602868995537050041674476658182840225368293980321e-10
.149574880173896180947921109060958764253387785772907023434380269377674135160e-6  -.24450865988544869693819627504131795241635059176809362675007675614899379619704e-11
.2776935883753495568810020835157181103149770437533862007856152952341552616351e-7  .102157607078178975159916084088434302556566667842928109441009464231488441667003e-12
-.9061131407216594962811367350941702273112783167737713133533792680312986997437e-9  -.39194477726590049917887563160648213682660057444938209586494083722735473900734e-14
-.12421460876900785311992796385621363234212881236255673855399658859111768148121e-9  .139849373631193578453343324053472947624823167740122541382496306535101948512872e-15
.24190197027190311845442498784605958825560681444622939688309683026646668140727e-11  -.451715421144588034777555043657611645457898532743410766428976739838127318489163e-17
.3297641369710266889898725445537849406289027220546031142990834161247067261556016e-12  .1356667939032858100955370339557638405431538062448013214072208808906301811846827e-18
-.126762385539320964862744861411302051500614914481569788296808101750763231318292e-14  -.3501947494796433202248586489582304157390169871290337109081335945460902779181449e-20
-.4220348367017998328666957357765759551170527716702366090003422023601901434916554e-15  .844808808834226820698912461549656217434268519046458318906003139947172481525641e-22
-.3952812401798806473574817131531491926740697667821840483714520930058427829218424e-17  -.14368846686248938845733894677079241440078275458796829678667389047177734370539059e-23
.90033724201229265002227495351043883172722156022780004792308741028170581188711078e-19  .24720420194853137933913517700405320254693175276012904306774606567143532732561653e-25
-1.93330643105199798827478843091457360388513619459915528085252990011492939304  .97365419433754773684827396112724081088567415736338133453708447653275470481286915
-1.19738147715960299382138775822365290832944580083760878339944162204874066701  -.29817438094786825047586208362226996495093655693355757289087197922984640108686664
1.848337253542206885245379570723674317380203996283891377746620352219055  .5221115306071971646994731683133696369796291117150012006298746153890962139982e-1
-.377536722029301445569492614835134082041303397463545246289749935827125e-1  -.6483943630462114935192437003089870841406332427942879378047718947873751784321e-2
-.21536689691876423182989471071542002250925100086273476923012300539550624  .6375384368497165831215502859831322954885182529509109179187953194414318204253e-3
.21710496073834167663201074427756836294419510727500533782684138311844484612e-1  -.521102870275247848611938711374930884193354937880369966938527418767804784899593e-4
.795439113770614623781330080629474897048512828032760937674120768227051138e-2  .36759530585382650185067942271637242262699306292273934695420463929027659268429e-5
-.1037024857931008939340864527171968658683509191535933109252144135732114236e-2  -.2282369834513028710599349354451405133348752619426604291315160161139753002493e-6
-.1289771275169743316257759250395930101889183079980853386554898095290142748e-3  .1271100328200798936503970562056517580301052551971887626956223350069321465830e-7
.1964788073341500825990785377526748380499381687422127029522080756303032571e-4  -.6404073527496397052472507865794725960107513945858343312252881845901341055387e-9
.10997478632719084229368946064763888734149037324310780836147300961387626328e-5  .2952939252543756853324513712638473209279322593553081726766006474562268005659e-10
-.190397075461386023077800215338508157821558629208981325017372021265216574813e-6  -.12478748287003617744521236317175836368407748775966957584845625627203878946238e-11
-.576057091988861138453601015590554894825183399806920549800368188234423282127e-8  .48748333868312393753747293793072146190916731404170445428300670327403594022247e-13
.1045915255122569591659619347756468111380421331833405776941863911920985288667e-8  -.17485041869435348434564758841592752913409425070279198547871179329485941038381e-14
.219894689396841273373377293739531293910092393893713631510557436722692291274e-10  .58128011001864137821432765896263833177286510054385896572418214486930772544482e-16
-.33435856189704620534718682154487912290989450544707122423499454212495296901523e-11  -.175112919271070906502378829840839458499625001761293935319271982328831323105058e-17
-.65872996804643607916729928216518278870048678328669809666379087524502133902182e-13  .487121252355327654989382112576608959802610233155521545290031680336542615293879e-19
.586649810701241618786232087406677353329711167522566205284261646742637608782259e-14  -.1170576245479890814217977388623256256557451843734833152617049136470537294871724e-20
.131098812576715687734580364651409804797642277109712725387458806527349048390613e-15  .2582906738571053983066243564124011176861208107420429343505158999446829805006881e-22
-.4390405817915905825728142052717366891985160835555920881499781729914023622470996e-17  -.4098562125423943414544606556270743625583068711295938153742772639495735293804979e-24
-.11698285625685075997182021333564479951371483710364935442764016177706973146600730e-18  .62119189513234599653207670159557756320788255846605557721628182828571863506128444e-26
2.4546921427348563096203917684308399676358547425668310053248778567399841105  .97989520956057838078121968395257384056042323699924028010465802011307764777124594
-1.0192796265627713581696107112605895986052581533107219217059346884813478532  -.25647384962347416115119123023533222685809442078806511176791805036390539975558520
-1.419629026471020151661840802618169433503039981148764142716577979027960  .3991271486305546834334481008845889896211670805234254285150678046162720767681e-1
.4418734305669512577852384494405605628747360613117180756027576062391227  -.4433797197680673811431392494206396428274961136602831830655334139389506947215e-2
.10387201005126526602977203410992363174580554709951609080215548710473467  .394247624309911055609211298332263622629210909649035973183309892777738959376e-3
-.3455236610555119278872281382282400862700366403793973371540081978000599434e-1  -.292477256665453197726053715617867560244508621250360509140925242646771826854826e-4
-.214165529280194533179555206208265817864449267401210933619877485518686739e-2  .18836789795256007380288782998911080198037615686223175093073925119647879011030e-5
.99770965799883884887038179394609518057565945422054836089307554810562746e-3  -.1069879244798482427082907291084003532532572130191533833537724838336409864513e-6
.105401227467303394595648334071995189981554559216002961885458430063580643e-4  .5472698809455198705001085716764341133043378065501908210679655015837713235723e-8
-.1401985228582434583386876645120183420413973777493268067484508510007887414e-4  -.2534239881132446793022659967867375986475793572787195959403348662008190772241e-9
.1018172112249761471594196643824242788420437706258337374564315365613150325e-6  .10776629171176573513010776741301753472057383624889263640931351325818706139413e-10
.11069629953423173252556498041294819214884232780799846945707803174502066683e-6  -.4197411051535820417769400232223373499454872949932499053582332159842511317557e-12
-.123030160990006491515524566147184391657549937082590327749326183163931456655e-8  .15167657292774116400542320970103209735671748386175031821802521716519386911272e-13
-.529534613568892947207838631038234895152509417568961319101267429610086750291e-9  -.50204029410515338393601284581426072840489180610203149193954796856601690996481e-15
.39366401044857894220820193670932128425196377048969000405322491416155356029e-11  .15482419184380878985538071450587760821960506443856938756156037209115378650177e-16
.15592155067270021463751859214093152931437156621551684619249540768269441965205e-11  -.430180048428599271692912988725922429222089017926892884529727007908005173519087e-18
.683022421534895433514178939855741652036206784036365952833498111734511794782e-15  .1114775419329175958123910530392778779960107521463241017070587484676373464500328e-19
-.264411617090902277607236747225202631187376016804458581391842473940525623782876e-14  -.2462011703575907103660439698946630089984953170779321710136464661444899181178016e-21
-.262994641770225356915830762312386818699402476533993627669107485541575315698966e-16  .511157883080759702214598744862685663695081401793704888298357838939177401670152e-23
.1992995584368288366393616224797111274174814670125625805957437735624424161559654e-17  -.7373434650527015998491362996649767087597078510929256699272337862756566264198978e-25
.38293474981998224914295089939115982245800976447823900134094026072778275492538016e-19  .10865690539450133364057234948097376730306884797986299639333061287913565488727699e-26
-1.2820590177820369434215959731598707635227655897669932814868932817528197398  .98454782037339739036107218366070686382490842293192972800248728959674311777685880
2.6400397939020114917223660088026489400783705117454031984250121627462414665  -.21752828303511636404889368887456963197817055671085072911289191293034113006747981
.221130229969509253403137468557525435195056124097343354292137626869701  .307120005109184261188981749351637015959016413485690090179097479930307662422e-1
-.546257763072839605722993335401158509442924916596164477388759667105964  -.309736324664522589162675197543128820904795403275757736094469126028244889332e-2
.262087494640093173914230647869569628773795570681079592556327322881513e-1  .255584858033023669276726321175955067729814184691470957416563503244029610919e-3
.2799898655330219750014219891727817586777422626724998833738425369959151945e-1  -.176223525710440399506940260627849005990590990499383253940556315248913692474122e-4
-.213201769121597151602903594313569551333468962526253325418427283433609472e-2  .1069704941150210636083352259916485273204786393085189429595912704030704289402e-5
-.58920474880977066961364194575511469035490310717920756317262727201600175e-3  -.572997475253111144697943004679613377395777612864106880654437588810463533572e-7
.489889217173519571864656361664174737758077249157170804967702719252455523e-4  .279893379195529022468375290740018502596575422655518774122655842155042677978e-8
.645122689320409922259467947662971473106903212214341982881122930488042777e-5  -.123650977063172556845631982749443450569620663635263024721377060952671010299e-9
-.5165183853590817011530547115198229374833271746582159967726152824224250783e-6  .508714394308896246801174507543789071690015733762367132663568742987842691657e-11
-.42492827043523032622009008363107103597841545132943104241592115263814733512e-7  -.1909295008596257743124249044777677083003050591937334234282483315738248977203e-12
.287888991518302927552299489299332105971158989767201094798890783566801508692e-8  .6776938440690301552581746535555376870048155043799886785691866812925357715454e-14
.183158034788958155043016018025576831086512908055757149489270723830412121048e-9  -.21800392142569107652562373086345548192420739784748758926446107716371859765560e-15
-.867234121218857650795205753932605167523768112501665390690755997743261427799e-11  .6741591817089530515511549973461893009808406536664224767986834577186424751382e-17
-.52067460685023481034578014300949486780611481234470960324693302982689646873153e-12  -.183002367698210179703147140519094383599595053202985637885931984953764658369742e-18
.12412262796480799993952374390414552409545304935458472534405220773470585807930e-13  .491821021402713552259031433127001747631763875720735219113545370124052693638071e-20
.887805026705128502342084478255561032090039100765458690994229726706775996809849e-15  -.1056466000954080988518134678831484974112441948406268516985315709046344982619337e-21
-.26089062268531267660929071851610361057670936938708231867408884109006914439637e-17  .2430770621684888588851322433138063445842252775441269869931379110887310925418023e-23
-.6801055531269607928155277505568585281781219909535414695463862036256651748783615e-18  -.3297972725229517524467690298843404058682928519167334734857386984319785938675454e-25
-.87831608090279978498890371817130558623369775774317551513634356928007582580807290e-20  .63230273982511169128253226154587587413695368062879180512050819692269033480701713e-27
-1.1498061105724587035708116494963137114232547729771415638780592326744018169  .98423164051180482313479193957445045868865336663724890360583948969260816806195947
-2.0824960234080566886050637310262411185660860377127210513177947418995611462  -.22115149358264462736447357036536039797082418779614133344194352108672740302296476
1.097297353693172385312049619880532512664321937026551119856995550552509  .313390320940717462227839791981705767568537371697235690992763196407052659643e-1
.2283946059086890279230096605388603944422018626795341576871429536567055  -.317933950848273550876048213657662627998191420930280372693884775013345118387e-2
-.11532624934932271532338856624025117796069246834393876177617523378883061  .262663798713900709192719312235349459926197420032372459682726015358165120520e-3
-.376230078910450284071567046254208077909477192651927049962177160527841817e-2  -.18149871589690985948543863011690292871195507469812003776161621799945071778464e-4
.381443490133584554212556780863036322900041231407112160235205718593127162e-2  .1099946168548103825493960493521635089724816633475155660125976468575426496594e-5
-.5941243358547024748212456871217718847488647721049178983006885264790591e-4  -.588666313044628319863806928437116203761326380218871361276956948474553835331e-7
-.562820664862322223802608088518821742926712955587439889901193677782405937e-4  .286062038843935790142852022663134454688944663193745594505133268421999017288e-8
.183695747047942184706451802892045151560959371104220206410518652416725457e-5  -.125849997538162875609795359931074035818233064184493846072360867102348906844e-9
.4414931563483985106961024217725548828341354848613105215796388447444423091e-6  .512620838732312044005958494175236427943784852319629776426069908664946154604e-11
-.16572863692373609581045260358618311832928303151309982826599361708062840049e-7  -.1909022773583461016588787059468550963004681761324271976692176571925924686619e-12
-.203732070510018875918278236118470101965267346178530902514804042580365922043e-8  .6662914567274276862861630265128805961275280951812668948185551929913513455316e-14
.721142700441974845137821642216418352523993659674807357072431475774594228942e-10  -.21189577448184050255911684544043485228545569854426453376688407017773930051794e-15
.582194107066916212635639443419768793280922752531515922078399150208962547001e-11  .6375669538073453107277647083400626069512064286919993070947197436291869547947e-17
-.16409469428368117867099630474109013083929629387668756046263808129505859561466e-12  -.170681452972168381393352641793085133736033283635188612992364683647867498257285e-18
-.102438596268545828020014414274658663083000884622096127543025086162863757627529e-13  .438265375277814590433241205035750661601510098691901140986902338876978735346809e-20
.183577024935642792136579535351267460611819997562240504473023722489302370996951e-15  -.930752220532697857597243452446807462744340593807149139187031989466461638263070e-22
.1005457030029538698417812104975567512342015828502164314668029904429273133969633e-16  .1973760076009326793940742587300457990726914048411597348850477018912079466902976e-23
-.744901148371692911249125337621250405755659010565075738183830844581233823377675e-19  -.2695485517629939373700493309688633574261372971832885247304105323848083076636958e-25
-.39829117085809957167851621469924835257748291461467446869202567195908725192975290e-20  .43862487842719714071154184725835263951398844073328298272114738961653863483349318e-27
