-.92630173416150294201866557802584977504135371684277228827223485767630028614856857e-1  .95290415141807586949134657833132909277169533374038181720327820436636225667320189
.42604192472885719823509870573602646196723285324897979766144698501979757387987714  -.42009394165523219572267007218173110942449612119715211946036211311850979268809763
1.2358167075327835060573920798063292940950906696356864793603612121705388824846394  .93034829751987085095749728262517783482700462513234182995087155076260299380108482e-1
-1.0894375822384045050979191212753931486059403797271593430250091666828804548090052  -.13782116156654990344197654843495060962839688369199596584360569577835561092376302e-1
-3.0129414442865927599469586603139586296317493313669981061474055896725020642426078  .15340368348566000240512318367350038003575935108735552769488618844694301218980647e-2
-.87227442484408859956774452897382761237117896778596463927785799745924528184014309  -.13659434916162525531217261166442997844580811191920344245515597095300889098934548e-3
1.4621909404691648490302559798754719945849390147214459763835583343966999816968316  .10112970573345378325857901035872511797969214713635986843831372701065771808384563e-4
1.5446999746901226256749995803204467948877996329464876918488445730829529990808349  -.63864433906672164718111584448559923843374583840317125359408854384298831960404102e-6
.73887876765724410187601254788529596619783475258729547741318121474623368087557639  .35005676639773950013463974958895780337857892723238644869431775149347771782630681e-7
.22028834707725011089761664260709961081513404256925916820258866804692070464137200  -.16852362238961327367939021720570177023500419451313624045306228723966503578153843e-8
.45284669212849708814749931343251624574670635590292785456710353220352941246829363e-1  .71801199420492423582533573346676485236080907467439257051510977342628482754209649e-10
.67397403720774838251723429877511513670807258569685347086206997738312105682952591e-2  -.27183784154213543014834122725505893426285866500082412477514493616181632519840520e-11
.74599798435826438734250035693577040737177025900939746490475689073174847136623173e-3  .91516627724874616996435012187859622744944046537882204223997891386164426980711725e-13
.62290350823072602782239300844727454211826827197169948125983777328928880577454646e-4  -.27319528916251907545933532755794965271866239579745909933366588302912642521235197e-14
.39429124655466008621399593017976211044582325006640891662860401064291323048220546e-5  .71810875971675532354676614317184415720834476943082499445176924777855149294365462e-16
.18847296608236480745172795440940871953201260381352306912383849689175982646287033e-6  -.16414701717180300369582378430663287490075652511830676114085080537477999274114114e-17
.67081469675138211890172232129412118960331123771723056271808458248124102421723362e-8  .31968382415725408833240931261262872703477914037757898349470655303675527331631080e-19
.17275955480143065590567985158282526338518421944445138349311518518500970501825703e-9  -.51305045785288976740261416537889474087364072625888477708271022658306310336603798e-21
.30508710643853401356306070967599973248532431294044743585329284486646665824893329e-11  .64076006455364413474053555398316046148747316625675714152248609559756544360178614e-23
.33160891283511406125880395116932367350618414595123001100492404646769199663879059e-13  -.55761341414843698226606002329400596735280406492031581183608071771008875654640234e-25
.16788071142496078253985349610622302102711899896580798568891727514316480243872410e-15  .25546091258239997021072594691958174680588579680858631149191539804313404051797397e-27
-.75631102961620887631116190997856480743430959897393444208471057300226458994178522e-1  .94960283189038355870711702815109577736034277401013919917111845267158349374961807
-.43441795223809292452357284636508656576004525554759868411327397765573770558476520e-1  -.43321273561553730225553447693338343863931917078233246652054558770573429664399505
.3254460904954819056068520887689595547029904897914407222316179866691163204535  .99456721862614698984843028083658156110659456468600572464408673734955983677826047e-1
.4266033438060821603557269655436372314333165836004330194418415956196930009976e-1  -.15302869843786140632582674278626394327535356997421871015807762284522626194145691e-1
-.20759768773634544821669951300094895383552744688937258443168265153030805050913  .17728256217553499298274991672073654467686919468278301791669837909861097072409264e-2
-.36801597231878758940822640574866958263295518318952768246255817227218899115475363e-1  -.16467201765815166236664893239017667859238603326399639876051981325227864294616636e-3
.4398316492246705694989132531061138345608155204955886945097980538661526296345507e-1  .12749551912411548147109120629474299779157388015011232799633728433855062502196309e-4
.1316381249120905864123782508614475488997065992724460736609604640773397675618880e-1  -.84426140823109779405857622258887781335271389672188410602356130637172736296448055e-6
-.2622402811732885836034173787551288136745111391926120250371076947903284428898e-2  .48668135815038750243476350223656179841247740678014272742488685027430070477999989e-7
-.163519858276847674959813327502116312855405684717496049299471583804745744533965e-2  -.24721367939418337630675137799575383257510425456111200259079900244035683491676374e-8
-.1790715585235359645547959904418248367568790268222939596651379240243542967801272e-3  .11153625552888570966542080884384498776906328085715611746317433943599660708874732e-9
.40074648016417740275950813331209033958660418194527006585249566926446066493632e-4  -.44896022123109972213318677419135426675183846993040544443719285794838223505461794e-11
.15957599650006929224514544858538026780327800187862265734119054285689972249163062e-4  .16141920680461271064855613527204025952897416092669775153517733931517328131627748e-12
.25890347551114442666453406615503012782079522235807245102361302464956845231405634e-5  -.51721100795977368587426569229038250449210849589836111794598113389665712692658484e-14
.2591916216510052383269839433233254387809910574224051976173993036533729362792649e-6  .14675377309787772935644426691746458689176211220871026067086286789162287514324429e-15
.17578250022035364205120223894487343910122858546847804719266834786088952178131837e-7  -.36445270319021444537819689017762450035343727654221561763715675013955535436323074e-17
.8291129915483254300430191731920949721041540507513958596925726521425866561140055e-9  .77688120521826407312236481854471600829263083475486897293125117724388630076430011e-19
.26993018672745942725075535760670875497654116356997628385707712373053982536600124e-10  -.13763957405884118028119166600486782139438994752826792476162901545655297805992388e-20
.58208563529308067641082403668079948563542114713071679398694264323531529899042723e-12  .19168362522100678797434204880918732796940642284223725107604593542188703690326506e-22
.75234741966750384802663103080419787767102925407004892936004853003404577408228808e-14  -.18823185277766377001910672062309763543371090735027646726828186517823576978188135e-24
.44352095632678931268148126213623565384670274179343077066374747438772547576849121e-16  .98712118994712362147174070730448657177678836084116373589716598077536055597800350e-27
-.37463074897959054595720266957506387480427664793371287899212413946771404826327078e-1  .94605157095465870992123173026535882274822017062552557515925417570145207667658731
.12990581312801438234233266456920978302415656096406930227779077113286260542530831  -.44671968653341107310267123346116392535488238244214255657975251379657721612832096
.5142079287341823304416622438070315062329973727579831695150709940269107471e-1  .10634844148869899061184002613098840922837803210225843313958730817455812986701471
-.114618701719187607788085415587376804213654140784183164344917270275139778645  -.17002174977806602008651525077336145951038273559402446236717156176666964518840916e-1
-.11737377504601462245428519473474680400308101999967548112413036515708111156e-1  .20510776248075949915315166685274506521971974324628855577244089889319129135641170e-2
.2618277043211846920993574247757455267759822543480604465956722973682197379553414e-1  -.19886536658688979752623548743469330249282710053464641298193423869936833360520557e-3
.2058391431531896987668716759122175777289483834239436881045880216571672614383e-2  .16113793361422776183200565639168440604700433780671731943045153159729875291208715e-4
-.2492117904432583050272184983005618937949285257034961786525453116185574879448e-2  -.11199537245502392993172183234882245854263094801178395684015545319195403378850173e-5
-.287635701706983995584584318261964265205356105654552354256658309188781688293e-3  .67979755896039458171457209876508828116582417328127813763426459449656164897806832e-7
.1076330643935975778987600784883631600303283275732667164791699591802200467156e-3  -.36489477125448397290961091509968542334107065198305712350270784068377188534999250e-8
.20140458451526108529053614944521532191850530013150103385879262480565404853525e-4  .17466448286723288301482284002444045931845035457772149005277528022811077492653628e-9
-.1328526591273431228722128169426875512390664945430593723772663597843694632177e-5  -.74927674787594173015281843326268328785956345264304625134083301698222226098447526e-11
-.596468199126973713025505564764463362085284898967877913127404977024009523185967e-6  .28857011716527957660165200331218275164346930209569936523800947271724670224032956e-12
-.398486513124094526256017577410177716825903280212026037645248114174243295100914e-7  -.99623606635996474641617416226998151188914789980579172809506145827257260088533913e-14
.38800002485688040796617704802495172488221835729679744304482273699841895755466e-8  .30663036190319605821259206723865595574362094773740379631418890396411598271262777e-15
.88620349832106906209708787745043132740752153103437114222902752589729053208977146e-9  -.83258875502709435884197355905394509577460351534474983173985960153955901326658442e-17
.7413839910761844839385016647284736103615185094915429457123885742432806941347604e-10  .19587633437343981835931931231309471495912535878911844331206071952781023008618919e-18
.35370448509644357845699666865553475832412032381882903453688903444432316735638052e-11  -.38737639787805190918522515679268944480261848049614944684643407216497593657290746e-20
.10163105990780538757178781901780871178813858202046421417745626157410312632676206e-12  .61069925347960004619323685771537978696944663795457409206162899320786296379965179e-22
.16521968325523120216351498485438108704450769855841400221485224045161190039727035e-14  -.69112493832664174017200908349747977830813456693326776908686292993044256215531175e-24
.11782851430635208776270312397037918829983380780205631800335278544927035056958174e-16  .42779181683181138006876520534138275231110713116117336659225911057718040640013823e-26
.5517985553812744119113134919588171936907507641659528110547787752998590456809971e-1  .94226323231224446823754737091309370176438725785507256979300008376132287621650166
-.2231177651703939846285052043428902042089735092206229812737505728903074270742776e-1  -.46050495105965892026717175605772388117915249502571886047452651279261957925997577
-.937101660868340246637753092248345163339129382747379827266497860047974779e-1  .11368134341312814765958559761575225611346443874604248464582672956424264272337291
.3372510888550801334759524678301530244401711429370746075840062015672928644e-1  -.18884794000419124957914631110192606671774463863439567853767318551720188506508444e-1
.2245878258049758941382230279844191924196952114846034732063471644401502414e-1  .23725443454262801938687013736108176069160127168025624825083699149874250216768030e-2
-.73039439677192959368778839392201403112534535463898218867261530203295519330416e-2  -.24015227802257815141294506366858190228515362522092958853058150431583618225917216e-3
-.204657991906764519911722196843985285845234448186698977139622010210672572776e-2  .20370527175689299059841851352267482968255691045891521654772954309745443311239363e-4
.55905275065710134416292752130139645880656945258419791065374131473737907697e-3  -.14865920485015738309358562331216697826006991484708440820923019072329761163879884e-5
.104561540521219334689598375308678485913188008452239401546654933379084877634e-3  .95064816195169378677738084742303912888404746683853756389154888251926858340897051e-7
-.193798679271509215011625753817380812085898330554892753504298642655410289870e-4  -.53963025703185754662467871125554233900460143390409066032406735129527030846904569e-8
-.345796521091709030419999590746870202742330801918070215787692658596737033608e-5  .27433154588019198494498618482644316500206672325109423714049468016161244584542530e-9
.295404401068613112408189034460417941556879917256001513131710943418690493727e-6  -.12559428181699531954091335647792932644084084641603672046909903365112547960971731e-10
.70482818437658533164637944018999632080702265334868363040281861471624374763773e-7  .51912249419959263403102873032054329949677979775198743756075535230148119523656456e-12
-.3615395627521755975779863512604622726845919694827812580136873060124776109465e-9  -.19360138124105300623739633598761467446963684357993492906148554981964610898808759e-13
-.7353977056900743010024181452632072388109045563602796868974631755725804681417e-9  .64869789617158736283793831636397016599988518010388337199756387773906964331405955e-15
-.4065976402579846147595866015194308787628208486039757528768367233697981150080484e-10  -.19354146379245162708796915370246006585615020707655544381769665968000813175093597e-16
.191506117837746687513488629033395741729458799457159740233641311558766547333809e-11  .50606666504601937563747566312522233455734103761196842268264679710302315044927148e-18
.3139811622759345643945026946204489901798210524996796366691303363751768710693001e-12  -.11285951057456015499082186961971725197040049596245856360785918374565439691767672e-19
.1516901324383544659935070149577225150199570240361968197806551670393583959570881e-13  .20452418429722267954932428048815504781055263733828772964150244862524412326251326e-21
.34496714350621035165966669369912419886637453136986684865009613632601793575504484e-15  -.27335234279422186413723699597879628366165701046075614320687528508026517265973074e-23
.31557488612499792044310026444078441673510782032791414530521608667172973241600954e-17  .20886229855266566674503396687408004864110817845838910486814417442956693638731204e-25
-.45299385910906394143275419149198940419013898433171788395971239417448538557908e-1  .93825103055800077569919977281996348432755830056587858980164042150721338054448741
-.12397773127298430400673556418819330018696409930838450837207185263373808371315e-1  -.47446962504077425160041801360747629346787668610754251274434678851167638564597234
.722918964637323050757742069331168384403260339516683126353964478513829145e-1  .12142606926886966000294645082477401757287075132722775980299493388224552615618206
-.124949107834206664723629981081145940281136876501920505267884527192569839e-1  -.20954549188362691593771606662111660101626024917109148567371659747174447481360267e-1
-.1440333155941310451462092277779206633200053381591148587101779987229975143e-1  .27409711209700203096145342760253800727979204256948349918662325071874994388865812e-2
.3257390559884441558864267460795016260134455768356403435439521830906048801487e-2  -.28958804984795537935186580175508629450453367125015829811458772119644149145447178e-3
.95094995488177527729212423174842761373228149913772493072310683378065917484e-3  .25709589694166376088472541404310144783386821666934436667857011357662802117219694e-4
-.23457011965602203679282761163508701443091877866005860050952309603736275288e-3  -.19697622443017543194604204449514847984057761419996887334975434782991925944215480e-5
-.30641256068535854476554011953196847451807306130679407175414861014388843449e-4  .13269704989959928820165142562505690641307202585865188243593965434179208932923136e-6
.75511735162017722366731881521671730794036542158246496743420000872953812064e-5  -.7965976137412412759227702061331489696319351314205051801289357118375478834016176e-8
.63010449794943483417866583740928571519713125476273746368524837209865086203e-6  .4301645090440504336398276581595720984820481974994505897785236959208255711666750e-9
-.127969220994395612066206908608488298369923675000281949399927627158138834183e-6  -.21025494969420879441762899334337388645043708480321223243063485196307660895535414e-10
-.9575818321084959693372322758284133752713684776982695686835004935448754443524e-8  .9333127653207233753393294568787005170706332241571915705568528287779180147520269e-12
.11654894234721270188349127156778636403109207137466618052260639563306933360281e-8  -.3764194355495925501404003588995223821895240584132173528154044725867916847247156e-13
.10190349294860636749113530954383489844575296059843994223348212931004655008774e-9  .13754871803965602595274448884813120107167541412337528088344859604080138898896941e-14
-.464473385747593828000406677066858479414060888431352752829745033067274172775338e-11  -.4521781037835631262423344904035560090695513392099125592709147569825924269735571e-16
-.628656980924497463229080549431373517393265090721646664837783187028782752718498e-12  .13200103718319497835877595080933896388104221313555699891143157529120740188559693e-17
-.382815814786542308420897266378625162876409567093597666845728820018745336730714e-14  -.33433533555979379556922903391793728801401688442278190300488997341425613741525208e-19
.1540377587113237510841034916156697945843536108376050475841416287120233743875301e-14  .7056218066325081921675249565302496621670539638200779117243164632594861640989227e-21
.6565150141693721397521475952139526228632934198324370089899644721241101893337410e-16  -.11379318046016516585990722517699614101408912129934651648782906700218393066982739e-22
.85301223174885059705993832637736109179899930440877536118736470234146283767126566e-18  .11531709793307718619919556470240781628425468146956795581046254032979291802332755e-24
.41690615276095232157687169840968770144273540023529864570175970633685911143975e-1  .94948413725090621292100504840087545633347077878344891102318827312605085638028253
.12538221886738823609578332390989265876000785774541205503217498540213595765499e-1  -.42298547113470194504150297934726280851440866336101864352090297284309109105104233
-.549808383335025221268550657633586798319404150113126217406498118455966150e-1  .995011057777756858323825052356674335095286165150373376215468377906088914141241e-1
.78152479851046205237015224185750215280151464045883572977865789846625382e-2  -.161585589029403873499925731858830221390977032036143669473412980112071417114354e-1
.895424198209792001260887585946915169681325210908804003517193817575397772e-2  .202561974847764206315624854678292424842274213525417386384445118097033233693360e-2
-.17785789884982031931640886305910713315418598654419832125498485844621309320202e-2  -.20799250340916262778434540103706451579815331797387733749960304839411773422894718e-3
-.46715142844919424561038472371169681207503668021941365827703350242076495665e-3  .1816574294474348708397231897650035834620974827072140925829725147227888822085957e-4
.10595489666160473304441772433181147721410027019745305331809505225275783410e-3  -.138349490863467337687992655165892534625787907421322386827171767490342303585557e-5
.11123235438559835210637579704519919942778152322858382904612827115340224624e-4  .93558573514532632267029478321497756717077847173777648363561560797764493371427e-7
-.27693674612350282396906017056215497905712691637842808176041129072785940064e-5  -.56885505324075200547662568348957158190501586597117022501692852864772288210296e-8
-.155759554987643046794066607009509668078559049802632058910876298722622789253e-6  .313981644983856084089579931547267272810470245634567024160169020960902423055874e-9
.379802892424051842180841932866916768832925296947305998853516262075607494271e-7  -.158230566687706501677761971738502809391299675673088161730045562708965304164031e-10
.16045576411133803525838312883139146886128436736869326678148749133500822071016e-8  .731328538345807467837048660790829968500461643826039810624609121794927996085247e-12
-.289200107757292854789875786475175794075088581177213515041593974186153144219305e-9  -.309996650415007473817870031975839467256384518971474994883485448529558609565575e-13
-.12699996498721153212028110056441402505665646447621822602787765600456708193587e-10  .120551154397868367446797702166673198736429551362110428074618420394675328954031e-14
.1144866149346639261970762784817028545201418977563664945461088899384702288818035e-11  -.4263403541980237677689884458029090606098807484874498960620568976599116373070871e-16
.635908798404827661890985814341654462229296202803271803004447229356542857370571e-13  .13663254502007216221107496360581370950125634221721280093283122089188488577774262e-17
-.1552455047036684708405717226837254847473917266928212106527423957533070159827658e-14  -.3844302117945998943155422109535251582519132669926314742053758840751468351989067e-19
-.14169235266289992345665196459024395784205469073180520824948619420664011243899633e-15  .9463229647794141310814494799054997677263873261129873740595699887593425226784320e-21
-.17927235025553598407622067426275545232976310394694639208060021357916415294747271e-17  -.17778982895079470885562194030694187623191235794561842667678238656667124120336033e-22
.15487333734723698323074600442585481547014140387497871876829130428654915569858360e-19  .26785601212604462558598391505652798190969212350566331367781755292261021458058332e-24
-.4254210590081243755440923287832294409489794988961046506400214949027300475675e-1  .95681073015235710803913523554965467162579326267872441539942806455985246853262485
.483010547187043277198658113378579254902371942908688406951859534224508891808e-2  -.39046560408651894195600543071567123743529110603785461924295619568510423823776922
.41587227152486752018775994831670028303062537991335943041811456867014301e-1  .85235834929728306245026984533798003985277764905710668663127304642346082643144e-1
-.105483215173115510540826375335135032761061635218395806729520618534338996e-1  -.129052972735800647795833676360919196073454110726769863146445054853297271082974e-1
-.49741519898427635531467523376910791773397920030012267723983066017529780e-2  .15136114220923189850428832177872260211045154143734250788776466539872174823962e-2
.146055714515706722729088815274734870214528639415006214312093543562874315156e-2  -.14569104804115879978045526310854082712972012617569113032554875025610766058023483e-3
.1741947389895619701029639806956940920390602688824591113162338303653282225e-3  .119462276885216699423062661753970681937525573920408611884835293577481443699057e-4
-.6624522750536438964441744478844371977641897120153604343263712456485079938e-4  -.85487932801416477280242139549324100598904688561386380740203264951990637497498e-6
-.2112752918886681782772535305723175388801398505592366462353054369142402210e-5  .54358113712609232493105709299272686381579438432928698016066206441281562816268e-7
.13975531141322155945985600633126034517349484907300786705034549935214920567e-5  -.31083656924446442200711489886730866999044771474009959053804974534520616378056e-8
.395185045952341569562360020854330936876295643735424053443984682322164760e-8  .16140030626795437824604323711158627848729694902202738395822892624792542032529e-9
-.161533678434977592442595863535617867044483664745026660356212491296766640408e-7  -.76502454991521528449073216468668069016869112910677250266065247877039188061973e-11
.75781884118966871558631104097427762117641412530264055680059076816592842772e-10  .332599086727352203007890346351697357200346758668713653574150407453492764827992e-12
.11081561979816849591503043001204455549581210042342135011359378571238811531347e-9  -.132535361901847887811753431253732866174541585061226224871597389547234031872210e-13
-.182229393086818598583133097722259952610453075900250460824345368055146084744e-12  .484611297194252477537517107551145866484001121419981632739063792442805908370766e-15
-.45605002450443142701239435663801859352400600319715302589740789827422595102510e-12  -.1609554681924607122524953106029943331387913984477891324715531931063020468457030e-16
-.30455180032790091623384989741947313931055780002477705654684552430474269662595e-14  .4849007816005769498236855919389208361186152305111494778588900968463388033766221e-18
.1037164330819136118279026314768200998539470125765857425246366802153772094732849e-14  -.1279082811041108877882102469895731936258999977062685989178920078242313430792036e-19
.171297850683436500528125110880248388962848873913121328073936503936529731757326e-16  .2964356402356353053739885610150675470756769081348054683272151149658883812777886e-21
-.9749616894218983793475413670828606920883814858928407972750715375548934257366225e-18  -.5202072138898307863683122767530659593810031505229428077747098163525216910299709e-23
-.24424392789859524054386743994637140482700853682204323476332379439765783895361928e-19  .74705446032493103076580029270381755619181326573426291954268945316841073874048525e-25
.395919820504599619450290788024704740836311986795153178217772802825150678535e-1  .96632625354892234073597412949675931660606960891184774191047455802270337770858554
-.276840844344229809726957718799953673005067704877069671328432865406423281380e-1  -.34369126237293170550738057269881511463081307144335479405093485886973109954663405
-.2603012363682220946420953889550005465640882553402460474683571591392976e-1  .66626106517648234945514072145113070588368077318156712557893717123684689119010e-1
.12677879616658654468030918085662681622600187025478431563083728169281801e-1  -.9037979568898701619343466230068120862833692621065856100441170986380701224691e-2
.19051526575514404571352643993850446755077662329352418362469940154789520e-2  .9566321161829633217278257031677866103325169795379449289293605731928902283534e-3
-.115571018806712199902126982053892726313153075688269099383546024566286057898e-2  -.8352087660996958109789046219826987902238208092599769760159676042908015527024344e-4
-.184204623921433009307445659145820025256713554723850610108356789968385636e-4  .62388210486257617114134639258021897689714860001937331658257772956183077068384e-5
.397889588931869098698246369456876013281945040021908450339929924407186440e-4  -.40803442171438225181924385616446370748453390951098166145078653222729651344950e-6
-.958220379483659971521977090282398316580128265453717299280902741342267615e-6  .23780190861898408675677885057767605494497669453817237971622314647976494818103e-7
-.6768399663143507772127782853896226453064451982321544509822897269715170168e-6  -.12489977627766253557162261716016542771933594207589525463427338776594002014872e-8
.2430531599745677566955288980301948978615352831914526142626883905261390323e-7  .59683270975929809824983935403607274102864728704269924576461275258207116173665e-10
.66009615294622234742356602634998484777617413495189405421021192202252208232e-8  -.26067757838422491389258781751218587715302121534398254342662776734922145880328e-11
-.226056732223103627763298608235009785406074718629048094915892509676190335646e-9  .104567601162959243085997805769220105373553118210202724523965431692537567220471e-12
-.4006033936103749273968107560722677242984730369620970087204772833817293487432e-10  -.384686743668624163046705202768726133676656060255447031543499056042666780499802e-14
.965877525955594415379484221516325544157238426013388233542410232947465262939e-12  .129973253808461177251265621711093426406334130953018191823636872166842572210520e-15
.153769043068556088329360666906308427261277956379077002287825698298294122986191e-12  -.398811003888253139123816397961820379880406501677006971911461746808107942398297e-17
-.14432629916538396014587174142161303918496764972055448766308163786642857796862e-14  .1110766278311395921237541241507962473615706441969374145732969055105306155488289e-18
-.346190498428344081792907798047664245022280862743677673216917395951732169975001e-15  -.2705281459783505333094040210102661865122685921683706173634732719913262830579144e-20
-.207823123515430273352784182049414061464154121905119663011847200021724640088930e-17  .5794196274532465982084970237127934926928199991951019406222990348429144235410400e-22
.3480889077185171980139954353437549646519318556791469907687268120799607132316246e-18  -.9366211241614374773755720844527849098107221344445707261235033791366709008157569e-24
.67509871710436364767820782217960652705601907789623391348495418310050602240428688e-20  .12407565659623747896292075502859447270707021762012833353205546046126966904979222e-25
-.238969614122406968873517749756724956053972569651719592181692035970878792384e-1  .97519395210933932828621690240036029534333223139940768185733455242657441126621913
.446112536741111736520764928940401201725944608743253568848692780164832755746e-1  -.29022458047140078667444983703482274916450338494517460973041614391291369858919309
.667639372112522102896199500647286175800792652887270757820898438049721e-2  .4919005307936203142202942011017333343142842439632136995100462205568973058799e-1
-.11950598741364289884006012308409676694795500330959281584345909473167219e-1  -.5904839474826648689476449812306308772306917247694489993915698331666097545180e-2
.4543497779828054208402528551026702985041011550669747117947543869652548e-3  .5602206121781449720911037857718099146045871396110836794626372720892987204374e-3
.7755144694128431812814072438146197203615558166179871188108416980509875722e-3  -.441275658605831380041133220525954950619968251232938481605871612768328903902252e-4
-.601411612098949657967852418127564718291517015065445603020856338505434610e-4  .29952162014294244311822911782132671269290629026643347932437627016519766210880e-5
-.205131076421850349055592398755665642208684949590763629612318749666639928e-4  -.17871530499931582511327363978565331441296337188868538891247565185951227084939e-6
.180562574912464874236915452446159947522112034402314814536344196579591753e-5  .9550036145297364563436297617329478272072967759177316790533265530126392002799e-8
.2827365398526092651629850477531794295777877893042796000270355585767205524e-6  -.4610563085582889246771428942114988674649155053742424303127478394511457157534e-9
-.2416130949247900173059179733340995740028819208104494624930132366048014559e-7  .20337738668823050849091128109454460806040693977956169433658722468763485107763e-10
-.23607146032734812436056256070210467679572562583400355536297560881147281223e-8  -.82104730098512475402859542833729156867764909446742965241934984170008597211997e-12
.169324390300002940169158385130475680150810546279802681677672503673434662574e-9  .30583346004839384793476480644939279300930024844286958591062896614536790135239e-13
.1299134749519262107858485090068560602174932413902298642407704848539251613325e-10  -.104451540746289422001744092514598083368525638160713680948188150546579548897199e-14
-.635604121667632807990406333102917053230123666366161875564572186815941866645e-12  .32988389570144554101386811962874550393180800889608592850502910580969792279252e-16
-.47248211633795011109964793736345246590203263850150265478706818763340777958622e-13  -.942946417516248600401043114810954901515325585758958738451395142254139821673040e-18
.10971590691523121592691172700274860282086127242616970659972976859631801625104e-14  .2481169517559514306324094642847265530671421448901451518712965629361042743167636e-19
.1027198363139570214339803806718148593242206440377974077774610956036167780590970e-15  -.563679053825000333521735588540340163379440836411029258579779456806460160974948e-21
-.8489498005913071428540429623865369040593996849516449009673926391598461022082e-19  .1170015736383503307324884912516702705157820743308381920548298867542810046932365e-22
-.9976879721610088167715918544025465044659565136142649828605405715665280250393409e-19  -.17495406422986857971974484335142289209089346751746759391229726605689760907247258e-24
-.15957954096571809625984600905125773373734347507548302761781390154673666520781327e-20  .24726997946224246052755809539190381691989414629114256003557966541172184095722207e-26
-.50267690619888851280507584367299391098695101882876230031918482911153406214e-2  .98043963732177089614889050931921427243748410228015289997504066001044219885704185
-.418890736159148094091521866921255467666459184955654007498798798967480503985e-1  -.25118048523578072319353226949998057059376714030341871382350697266000512303951248
.1265456438230269356798527510766508198706010110075691232266261013732519e-1  .388336409841854039071910981178189498507677769112841329041837492593659581389e-1
.7394681741171389605887822255359666972480196593350199795627585683604950e-2  -.428988921131864124920260718155350907544103288134715050297146032131564592086e-2
-.1964623201916745871336503891084900961016974880380870637241751602844240e-2  .381248935457801056981874102884336537596314477368760089120455892380948155019e-3
-.3210542663604458580590220989120736483357802770440243817324286799543982573e-3  -.283058972197483857958905659603605019340954386916205678759652151320001603469810e-4
.885773143828470164294979670850834034139308730677016922457368118418792827e-4  .1831532750109236903808793179289530164052883277598813189681968241528569490323e-5
.55507782521307282353081798937488095967482931427786599998959320329797809e-5  -.1046610080980813788362550662335840408513299421512892718295378718163294279364e-6
-.1742330250019572268226497114252004462082577135426393877965028904796168086e-5  .540766318248900380587886655058547151135392037822404089528283418966427494834e-8
-.501701466756981231148910488385480657144810517848862435734294808589375200e-7  -.253288889607738630816782301407361571800499752415030838032613550274664257950e-9
.17979863814763922279716664309062410442161759858833186628737177300633335725e-7  .1094620369587812826493233979593019065831003222651843376991409854842651646808e-10
.3245025541409940484159030777774015206602671148442196599722446879589949894e-9  -.4337199652279706642052961342296964508973222549670104435927352500987240636379e-12
-.1062453559808625073470271218287775477834095940075386807053825474623245448014e-9  .16046890689528855018098476268206519314539733365630207113262441059864975494992e-13
-.190071069384005512851442289647887740995351409843073910780914131365254460395e-11  -.54365165195712392753498755055056772101619116942504307673667612215432775635607e-15
.364486311053623063722965075918792043571932255145895505261342381344424036844e-12  .17336213699474333513809135682612377632749098339707073241713155121385050987940e-16
.85468491775596512279896002693109072870301140773417049949381970667924134884373e-14  -.496013441104382500834349318976567505070414672315445689302468343628296966721680e-18
-.66349419435895547894840676576763722906050320566058764839599479050992815443640e-15  .1349237490026585586860094861768062899992738743257848320057080909063056499745172e-19
-.220468151162374988610962064471944387444036847050176359762222552883206527114797e-16  -.308039287592493264869379970894338732341760174026856776234834009894203435881876e-21
.413598999983159758114443800064807494114180970949474572721632204665030165868192e-18  .690546644994882558381507783054400613597687088910702913457929238841252696625554e-23
.23457593679926519412374754702829487024530779876321676112702434269008878482655703e-19  -.10239562235356518750701324607277264124452406024612281132079422131607997335802561e-24
.23661840758645589598653533289906568533411451009351078130861316512914501823733852e-21  .17494216101090836031115007967820600832398056925967809206281613038368949085802554e-26
.31290216649201810974637905827582830863684851601298581168335316210843426541e-1  .98036510570360574770055760629278210305904530834683075010966735256259592782753503
.12670546180871362646638019360005252218659718923903166347340192901281450913e-1  -.25346483812430391286262298230528736426773212373548148598368149904867833537465241
-.2208915883905753730058754990134064460630028154393431622778173472913727e-1  .389862572966728729011689873437861178690692572415216795848944395422636667005e-1
.54934752590560980937643985645288375639805043517123055284074320571843e-3  -.428215366963349361542090603691098578672402848750600218468256339492661405915e-2
.2036365388944694526862266424230325065757077810654443742080573120406303e-2  .376570485647559474179070130945300152662541421307087891030755024050698403822e-3
-.1659085007292821245361928733914760666422011309761152430997957854320632709e-3  -.27636313862332620622829747543842444645898275382389450491542043370104016593964e-4
-.621829428206875389850058525739045610503814840758003778867608574411137811e-4  .1761097428991535271178922566562285330296485463119788556638219162395831350618e-5
.61696061506138325493052376221333261449444282318486399397994561930592390e-5  -.989953540016280543403539409895573854174667369717505466224737346642808873514e-7
.869007854852257990798051506831792227543496197741895965351649583130846695e-6  .501251130350791833068433025674150815973024520450891869143963001835107879860e-8
-.928910425768580489124514687536895257499011330184781805033938602337387729e-7  -.229829836952970129255027005607736834538091323850535073963447682583813159770e-9
-.6649632859518731174388825475094932208170810865758632512506486708407432553e-8  .967859767939684365828761442112202379709039947730874483403297661842813953798e-11
.71541571372863757644578417251873952044024143346208986005489846147327449922e-9  -.3734667222407448686925776485791358572820452570911575715255288173204244078505e-12
.316203346178623817485108273028133938038218911046629157706092012942612937288e-10  .13371528464336151200895806201663216160272142309068586003567853005365064716728e-13
-.308784685757809699861884783392014620547696417527910006997317280928997765430e-11  -.43877484991107390049370341643703559147304797840436942479467134997033007358138e-15
-.1015781619237520099622706788438706622286267437659155212612669285338850531282e-12  .13414666105377979509480630415143423978022747185640135931789702683474297115852e-16
.7582902348295763236900362130205929545321162011803591887758564400188417087489e-14  -.369863939097616750732380927232280849877934132222431244787054247988353951961450e-18
.22068070918409839596006443360291273860477472727352047448908373642187595509401e-15  .950727980908682961886210020519732899166909143808204729182965827229523541400990e-20
-.98689065468394398722324723265178327505776039248965826468881813204137348617169e-17  -.2086543969905648648744112017532964768014969667790194036240173285586854419664788e-21
-.286222812877362482051203205594938788324562676067065175710242748779825079759350e-18  .429803490334393099023638241517372450566511003403680014872055743082056954726888e-23
.5194592244886578957585998771820356727735448230101330442774430468798361359157559e-20  -.6176216352415620210472488507000447437554497207569624148163406518740996933978093e-25
.15813852284577991122997160898104524716467624504511140723616397985205179923240144e-21  .90179553164751284139412742920896585883149714036960122934068918167294454849680889e-27
-.3121890748067676577605938310256183661609038763704452320600237792386450482e-1  .98446998252616748361340058134721339961421403441032891598384760965665605502150440
.2327095039650245557882762707417169922270706562858387054354357738248479549e-1  -.22249126418374616943960039617614021930599296037777196342684265960493942324958208
.127930228993214270907414635917644813540994281559036583214077442976084e-1  .308747115950140894669288411694984387452979418674834332279634658118004801352e-1
-.568282086423669742715264973850584390078863456419383490115187616412238e-2  -.306835652480365139940563030245614443781802614277587515749760845961393530455e-2
-.645357277777567815418194119519317479061972105597015755786572431374911e-3  .246289835854977112475345255796627676906746422811196952230168494401139988065e-3
.3176609437531145660708647027522640192862397028987635441570824892079363188e-3  -.165274409822573472579494435415295161957313734827513900163346960282402715587885e-4
.7327125296277048692863662342896787979332206335902624961886613662265773e-5  .967515319964532845683735416908958575110376803602857464444559746403744922789e-6
-.70444213919934794258086073263438232864867508277958060469947129360250408e-5  -.499981841730219837615747860692415605048305301234380723262560916310830464078e-7
.4038224605009116537818905499391614757181028132068746476328439830663371e-7  .233470436076525206426325663741706751379543619210283036130796993304103120177e-8
.787276461563462798518854846646100568247569397163204417316414591000947235e-7  -.987033844315902154975134667586210799269856522419968221304891242448075657716e-10
-.1141103666821268605652041195016769035652545137773157927568826244159964107e-8  .384251205542412376642284282104787433212074819939632011307808384003924745709e-11
-.5043373992922034891062824848699938518747441460682124257543213927304567351e-9  -.1368962894501904638451414680300007521017279897855170200137390438445450532451e-12
.70468834806866737802508700702344908392349289560128184620001816470870776433e-11  .4537761059901250539810111010068690160415644153333404977146943540952215988115e-14
.197704445624255599585941386010042080541165578281551280515934182670207035130e-11  -.13747816990251531566962253907525170586746249918533125753947667551522501731630e-15
-.163270543256875410740751321923315860024855226793714837654880377310944023909e-13  .38955316285959927438808912382274354672522108989865455490798994102524850961897e-17
-.47783254971290879693372313158615575252938996938589411740738107331330899130494e-14  -.99011745296632776380561361703435228832614480402581573464603094427019894730464e-19
-.59629042180740366967552663480278384391391338658779069734109321462437600920e-18  .236250153073804468579087997180370420968463326014188696279073112570830880679533e-20
.662243456241275240018634569671256664680202643412652681079598076955803880351393e-17  -.476109091003717858195926055352042767442222159338368563761230678498564666761030e-22
.60803788693171269086129648683595073344339303825142730384793911937431632976308e-19  .914168354929311156867324552083856845325980529954231933067727285323849579149138e-24
-.4051594161070926007374296099662036735109287950831943746911026058965719693141167e-20  -.11958366393564756816377491491648791149769278971590378705004814426135136334966540e-25
-.71168542235498439727441668647506418731682046404964237516277003913385858392362316e-22  .16505690027709364006631633835130282666417633871123131528471313644554471580988865e-27
